0,0,0,0,0,0
0,0,0,0,0,0
0,0,0,0,0,0
0,0,0,0,0,0
0,0,0,0,0,0
0,0,0,0,0,0
0,0,0,0,0,0
0,511,0,522,39,1
0,511,0,522,39,1
0,511,0,522,39,1
0,511,0,522,39,1
0,511,0,522,39,1
0,512,0,529,39,1
0,512,0,529,39,1
0,512,0,529,39,1
0,512,0,529,39,1
0,512,0,529,39,1
0,512,0,514,39,1
0,512,0,514,39,1
0,512,0,514,39,1
0,512,0,514,39,1
0,512,0,514,39,1
0,512,0,514,39,1
0,512,0,514,39,1
0,511,0,528,39,1
0,511,0,528,39,1
0,511,0,528,39,1
0,511,0,528,39,1
0,511,0,528,39,1
0,511,0,528,39,1
0,511,0,519,39,1
0,511,0,519,39,1
0,511,0,519,39,1
0,511,0,519,39,1
0,511,0,519,39,1
0,511,0,519,39,1
0,512,0,527,39,1
0,512,0,527,39,1
0,512,0,527,39,1
0,512,0,527,39,1
0,512,0,527,39,1
0,512,0,527,39,1
0,512,0,527,39,1
0,511,0,530,39,1
0,511,0,530,39,1
0,511,0,530,39,1
0,511,0,530,39,1
0,511,0,530,39,1
0,511,0,530,39,1
0,513,0,519,39,1
0,513,0,519,39,1
0,513,0,519,39,1
0,513,0,519,39,1
0,513,0,519,39,1
0,513,0,519,39,1
0,509,0,527,39,1
0,509,0,527,39,1
0,509,0,527,39,1
0,509,0,527,39,1
0,509,0,527,39,1
0,509,0,516,39,1
0,509,0,516,39,1
0,509,0,516,39,1
0,509,0,516,39,1
0,509,0,516,39,1
0,509,0,516,39,1
0,509,0,516,39,1
0,509,0,521,39,1
0,509,0,521,39,1
0,509,0,521,39,1
0,509,0,521,39,1
0,509,0,521,39,1
0,511,0,528,39,1
0,511,0,528,39,1
0,511,0,528,39,1
0,511,0,528,39,1
0,511,0,528,39,1
0,511,0,511,39,1
0,511,0,511,39,1
0,511,0,511,39,1
0,511,0,511,39,1
0,511,0,511,39,1
0,511,0,511,39,1
0,511,0,511,39,1
0,511,0,511,39,1
0,513,0,519,39,1
0,513,0,519,39,1
0,513,0,519,39,1
0,513,0,519,39,1
0,513,0,519,39,1
0,509,0,528,39,1
0,509,0,528,39,1
0,509,0,528,39,1
0,509,0,528,39,1
0,509,0,528,39,1
0,509,0,528,39,1
0,511,0,526,39,1
0,511,0,526,39,1
0,511,0,526,39,1
0,511,0,526,39,1
0,511,0,526,39,1
0,511,0,526,39,1
0,511,0,524,39,1
0,511,0,524,39,1
0,511,0,524,39,1
0,511,0,524,39,1
0,511,0,524,39,1
0,511,0,532,39,1
0,511,0,532,39,1
0,511,0,532,39,1
0,511,0,532,39,1
0,511,0,532,39,1
0,511,0,532,39,1
0,511,0,532,39,1
0,514,0,535,39,1
0,514,0,535,39,1
0,514,0,535,39,1
0,514,0,535,39,1
0,514,0,535,39,1
0,514,0,535,39,1
0,514,0,535,39,1
0,512,0,531,39,1
0,512,0,531,39,1
0,512,0,531,39,1
0,512,0,531,39,1
0,511,0,526,39,1
0,511,0,526,39,1
0,511,0,526,39,1
0,511,0,526,39,1
0,511,0,526,39,1
0,511,0,526,39,1
0,511,0,526,39,1
0,512,0,519,39,1
0,512,0,519,39,1
0,512,0,519,39,1
0,512,0,519,39,1
0,512,0,519,39,1
0,512,0,519,39,1
0,512,0,521,39,1
0,512,0,521,39,1
0,512,0,521,39,1
0,512,0,521,39,1
0,512,0,521,39,1
0,511,0,526,39,1
0,511,0,526,39,1
0,511,0,526,39,1
0,511,0,526,39,1
0,511,0,526,39,1
0,511,0,526,39,1
0,511,0,526,39,1
0,511,0,526,39,1
0,512,0,518,39,1
0,512,0,518,39,1
0,512,0,518,39,1
0,512,0,518,39,1
0,512,0,518,39,1
0,512,0,543,39,1
0,512,0,543,39,1
0,512,0,543,39,1
0,512,0,543,39,1
0,512,0,543,39,1
0,512,0,543,39,1
0,510,0,527,39,1
0,510,0,527,39,1
0,510,0,527,39,1
0,510,0,527,39,1
0,510,0,527,39,1
0,508,0,527,39,1
0,508,0,527,39,1
0,508,0,527,39,1
0,508,0,527,39,1
0,508,0,527,39,1
0,508,0,527,39,1
0,508,0,527,39,1
0,510,0,538,39,1
0,510,0,538,39,1
0,510,0,538,39,1
0,510,0,538,39,1
0,510,0,538,39,1
0,510,0,520,39,1
0,510,0,520,39,1
0,510,0,520,39,1
0,510,0,520,39,1
0,510,0,520,39,1
0,510,0,520,39,1
0,510,0,520,39,1
0,514,0,527,39,1
0,514,0,527,39,1
0,514,0,527,39,1
0,514,0,527,39,1
0,514,0,527,39,1
0,514,0,527,39,1
0,510,0,526,39,1
0,510,0,526,39,1
0,510,0,526,39,1
0,510,0,526,39,1
0,510,0,526,39,1
0,510,0,526,39,1
0,510,0,526,39,1
0,510,0,505,39,1
0,510,0,505,39,1
0,510,0,505,39,1
0,510,0,505,39,1
0,513,0,540,39,1
0,513,0,540,39,1
0,513,0,540,39,1
0,513,0,540,39,1
0,513,0,540,39,1
0,513,0,540,39,1
0,513,0,540,39,1
0,513,0,540,39,1
0,512,0,527,39,1
0,512,0,527,39,1
0,512,0,527,39,1
0,512,0,527,39,1
0,512,0,527,39,1
0,512,0,527,39,1
0,511,0,525,39,1
0,511,0,525,39,1
0,511,0,525,39,1
0,511,0,525,39,1
0,511,0,525,39,1
0,510,0,514,39,1
0,510,0,514,39,1
0,510,0,514,39,1
0,510,0,514,39,1
0,510,0,514,39,1
0,510,0,514,39,1
0,510,0,517,39,1
0,510,0,517,39,1
0,510,0,517,39,1
0,510,0,517,39,1
0,510,0,517,39,1
0,510,0,529,39,1
0,510,0,529,39,1
0,510,0,529,39,1
0,510,0,529,39,1
0,510,0,529,39,1
0,510,0,529,39,1
0,510,0,529,39,1
0,512,0,529,39,1
0,512,0,529,39,1
0,512,0,529,39,1
0,512,0,529,39,1
0,512,0,529,39,1
0,512,0,529,39,1
0,511,0,528,39,1
0,511,0,528,39,1
0,511,0,528,39,1
0,511,0,528,39,1
0,511,0,528,39,1
0,511,0,528,39,1
0,511,0,528,39,1
0,512,0,516,39,1
0,512,0,516,39,1
0,512,0,516,39,1
0,512,0,516,39,1
0,512,0,516,39,1
0,511,0,520,39,1
0,511,0,520,39,1
0,511,0,520,39,1
0,511,0,520,39,1
0,511,0,520,39,1
0,511,0,520,39,1
0,511,0,520,39,1
0,512,0,529,39,1
0,512,0,529,39,1
0,512,0,529,39,1
0,512,0,529,39,1
0,512,0,529,39,1
0,511,0,527,39,1
0,511,0,527,39,1
0,511,0,527,39,1
0,511,0,527,39,1
0,511,0,527,39,1
0,511,0,527,39,1
0,511,0,521,39,1
0,511,0,521,39,1
0,511,0,521,39,1
0,511,0,521,39,1
0,511,0,521,39,1
0,511,0,521,39,1
0,512,0,517,39,1
0,512,0,517,39,1
0,512,0,517,39,1
0,512,0,517,39,1
0,512,0,517,39,1
0,512,0,517,39,1
0,512,0,517,39,1
0,512,0,532,39,1
0,512,0,532,39,1
0,512,0,532,39,1
0,512,0,532,39,1
0,512,0,532,39,1
0,515,0,519,39,1
0,515,0,519,39,1
0,515,0,519,39,1
0,515,0,519,39,1
0,515,0,519,39,1
0,515,0,519,39,1
0,510,0,516,39,1
0,510,0,516,39,1
0,510,0,516,39,1
0,510,0,516,39,1
0,510,0,516,39,1
0,510,0,516,39,1
0,511,0,523,39,1
0,511,0,523,39,1
0,511,0,523,39,1
0,511,0,523,39,1
0,511,0,523,39,1
0,511,0,523,39,1
0,509,0,521,39,1
0,509,0,521,39,1
0,509,0,521,39,1
0,509,0,521,39,1
0,509,0,521,39,1
0,509,0,521,39,1
0,513,0,520,39,1
0,513,0,520,39,1
0,513,0,520,39,1
0,513,0,520,39,1
0,513,0,520,39,1
0,513,0,520,39,1
0,513,0,520,39,1
0,508,0,528,39,1
0,508,0,528,39,1
0,508,0,528,39,1
0,508,0,528,39,1
0,513,0,515,39,1
0,513,0,515,39,1
0,513,0,515,39,1
0,513,0,515,39,1
0,513,0,515,39,1
0,513,0,515,39,1
0,513,0,515,39,1
0,510,0,526,39,1
0,510,0,526,39,1
0,510,0,526,39,1
0,510,0,526,39,1
0,510,0,526,39,1
0,510,0,526,39,1
0,510,0,520,39,1
0,510,0,520,39,1
0,510,0,520,39,1
0,510,0,520,39,1
0,510,0,520,39,1
0,510,0,520,39,1
0,510,0,520,39,1
0,512,0,526,39,1
0,512,0,526,39,1
0,512,0,526,39,1
0,512,0,526,39,1
0,512,0,526,39,1
0,512,0,512,39,1
0,512,0,512,39,1
0,512,0,512,39,1
0,512,0,512,39,1
0,512,0,512,39,1
0,512,0,526,39,1
0,512,0,526,39,1
0,512,0,526,39,1
0,512,0,526,39,1
0,512,0,526,39,1
0,512,0,526,39,1
0,512,0,526,39,1
0,512,0,523,39,1
0,512,0,523,39,1
0,512,0,523,39,1
0,512,0,523,39,1
0,512,0,523,39,1
0,512,0,523,39,1
0,508,0,523,39,1
0,508,0,523,39,1
0,508,0,523,39,1
0,508,0,523,39,1
0,508,0,523,39,1
0,508,0,523,39,1
0,512,0,519,39,1
0,512,0,519,39,1
0,512,0,519,39,1
0,512,0,519,39,1
0,512,0,519,39,1
0,512,0,519,39,1
0,512,0,526,39,1
0,512,0,526,39,1
0,512,0,526,39,1
0,512,0,526,39,1
0,512,0,526,39,1
0,512,0,526,39,1
0,510,0,520,39,1
0,510,0,520,39,1
0,510,0,520,39,1
0,510,0,520,39,1
0,510,0,520,39,1
0,510,0,520,39,1
0,508,0,525,39,1
0,508,0,525,39,1
0,508,0,525,39,1
0,508,0,525,39,1
0,508,0,525,39,1
0,511,0,514,39,1
0,511,0,514,39,1
0,511,0,514,39,1
0,511,0,514,39,1
0,511,0,514,39,1
0,511,0,514,39,1
0,511,0,514,39,1
0,508,0,527,39,1
0,508,0,527,39,1
0,508,0,527,39,1
0,508,0,527,39,1
0,508,0,527,39,1
0,512,0,512,39,1
0,512,0,512,39,1
0,512,0,512,39,1
0,512,0,512,39,1
0,512,0,512,39,1
0,512,0,512,39,1
177,513,0,516,39,1
177,513,0,516,39,1
177,513,0,516,39,1
177,513,0,516,39,1
177,513,0,516,39,1
177,513,0,516,39,1
177,513,0,516,39,1
537,511,0,516,39,1
537,511,0,516,39,1
537,511,0,516,39,1
537,511,0,516,39,1
537,511,0,516,39,1
537,511,0,516,39,1
703,508,0,525,39,1
703,508,0,525,39,1
703,508,0,525,39,1
703,508,0,525,39,1
703,508,0,525,39,1
703,508,0,525,39,1
999,512,0,519,39,1
999,512,0,519,39,1
999,512,0,519,39,1
999,512,0,519,39,1
999,512,0,519,39,1
999,512,0,519,39,1
1022,512,0,511,39,1
1022,512,0,511,39,1
1022,512,0,511,39,1
1022,512,0,511,39,1
1022,512,0,511,39,1
1022,511,0,527,39,1
1022,511,0,527,39,1
1022,511,0,527,39,1
1022,511,0,527,39,1
1022,511,0,527,39,1
1022,511,0,527,39,1
1022,511,0,527,39,1
1022,508,0,516,39,1
1022,508,0,516,39,1
1022,508,0,516,39,1
1022,508,0,516,39,1
1022,508,0,516,39,1
1022,508,0,516,39,1
1022,508,0,514,39,1
1022,508,0,514,39,1
1022,508,0,514,39,1
1022,508,0,514,39,1
1022,508,0,514,39,1
1022,511,0,514,39,1
1022,511,0,514,39,1
1022,511,0,514,39,1
1022,511,0,514,39,1
1022,511,0,514,39,1
1022,511,0,514,39,1
1022,511,0,514,39,1
1022,512,0,512,39,1
1022,512,0,512,39,1
1022,512,0,512,39,1
1022,512,0,512,39,1
1022,512,0,512,39,1
1022,512,0,512,39,1
1022,512,0,512,39,1
1022,511,0,520,39,1
1022,511,0,520,39,1
1022,511,0,520,39,1
1022,511,0,520,39,1
1022,511,0,520,39,1
1022,511,0,513,39,1
1022,511,0,513,39,1
1022,511,0,513,39,1
1022,511,0,513,39,1
1022,511,0,513,39,1
1022,511,0,528,39,1
1022,511,0,528,39,1
1022,511,0,528,39,1
1022,511,0,528,39,1
1022,511,0,528,39,1
1022,511,0,528,39,1
1022,511,0,528,39,1
1022,511,0,528,39,1
1022,508,0,520,39,1
1022,508,0,520,39,1
1022,508,0,520,39,1
1022,508,0,520,39,1
1022,508,0,520,39,1
1022,512,0,531,39,1
1022,512,0,531,39,1
1022,512,0,531,39,1
1022,512,0,531,39,1
1022,512,0,531,39,1
1022,512,0,531,39,1
1022,512,0,531,39,1
1022,511,0,505,39,1
1022,511,0,505,39,1
1022,511,0,505,39,1
1022,511,0,505,39,1
1022,511,0,505,39,1
1022,509,0,515,39,1
1022,509,0,515,39,1
1022,509,0,515,39,1
1022,509,0,515,39,1
1022,509,0,515,39,1
1022,512,0,514,39,1
1022,512,0,514,39,1
1022,512,0,514,39,1
1022,512,0,514,39,1
1022,512,0,514,39,1
1022,512,0,514,39,1
1022,512,0,514,39,1
1022,510,0,510,39,1
1022,510,0,510,39,1
1022,510,0,510,39,1
1022,510,0,510,39,1
1022,510,0,510,39,1
1022,510,0,520,39,1
1022,510,0,520,39,1
1022,510,0,520,39,1
1022,510,0,520,39,1
1022,510,0,520,39,1
1022,510,0,520,39,1
1022,510,0,520,39,1
1022,511,0,514,39,1
1022,511,0,514,39,1
1022,511,0,514,39,1
1022,511,0,514,39,1
1022,511,0,514,39,1
1022,511,0,508,39,1
1022,511,0,508,39,1
1022,511,0,508,39,1
1022,511,0,508,39,1
1022,511,0,508,39,1
1022,511,0,508,39,1
1022,511,0,508,39,1
1022,508,0,517,39,1
1022,508,0,517,39,1
1022,508,0,517,39,1
1022,508,0,517,39,1
1022,508,0,517,39,1
1022,514,0,512,39,1
1022,514,0,512,39,1
1022,514,0,512,39,1
1022,514,0,512,39,1
1022,514,0,512,39,1
1022,514,0,512,39,1
1022,514,0,512,39,1
1022,511,0,506,39,1
1022,511,0,506,39,1
1022,511,0,506,39,1
1022,511,0,506,39,1
1022,511,0,506,39,1
1022,511,0,506,39,1
1022,509,0,525,39,1
1022,509,0,525,39,1
1022,509,0,525,39,1
1022,509,0,525,39,1
1022,509,0,525,39,1
1022,509,0,525,39,1
1022,509,0,525,39,1
1022,509,0,514,39,1
1022,509,0,514,39,1
1022,509,0,514,39,1
1022,509,0,514,39,1
1022,509,0,514,39,1
1022,512,0,519,39,1
1022,512,0,519,39,1
1022,512,0,519,39,1
1022,512,0,519,39,1
1022,512,0,519,39,1
1022,512,0,519,39,1
1022,510,0,522,39,1
1022,510,0,522,39,1
1022,510,0,522,39,1
1022,510,0,522,39,1
1022,510,0,522,39,1
1022,510,0,522,39,1
1022,510,0,522,39,1
1022,508,0,512,39,1
1022,508,0,512,39,1
1022,508,0,512,39,1
1022,508,0,512,39,1
1022,508,0,512,39,1
1022,508,0,514,39,1
1022,508,0,514,39,1
1022,508,0,514,39,1
1022,508,0,514,39,1
1022,508,0,514,39,1
1022,508,0,514,39,1
1022,513,0,509,39,1
1022,513,0,509,39,1
1022,513,0,509,39,1
1022,513,0,509,39,1
1022,513,0,509,39,1
1022,511,0,504,39,1
1022,511,0,504,39,1
1022,511,0,504,39,1
1022,511,0,504,39,1
1022,511,0,504,39,1
1022,511,0,504,39,1
1022,510,0,510,39,1
1022,510,0,510,39,1
1022,510,0,510,39,1
1022,510,0,510,39,1
1022,510,0,510,39,1
1022,510,0,510,39,1
1022,510,0,510,39,1
1022,513,0,516,39,1
1022,513,0,516,39,1
1022,513,0,516,39,1
1022,513,0,516,39,1
1022,513,0,516,39,1
1022,513,0,516,39,1
1022,513,0,516,39,1
1022,512,0,512,39,1
1022,512,0,512,39,1
1022,512,0,512,39,1
1022,512,0,512,39,1
1022,512,0,512,39,1
1022,510,0,519,39,1
1022,510,0,519,39,1
1022,510,0,519,39,1
1022,510,0,519,39,1
1022,510,0,519,39,1
1022,510,0,519,39,1
1022,512,0,520,39,1
1022,512,0,520,39,1
1022,512,0,520,39,1
1022,512,0,520,39,1
1022,512,0,520,39,1
1022,512,0,507,39,1
1022,512,0,507,39,1
1022,512,0,507,39,1
1022,512,0,507,39,1
1022,512,0,507,39,1
1022,512,0,507,39,1
1022,509,0,512,39,1
1022,509,0,512,39,1
1022,509,0,512,39,1
1022,509,0,512,39,1
1022,509,0,512,39,1
1022,509,0,512,39,1
1022,509,0,512,39,1
1023,515,0,511,39,1
1023,515,0,511,39,1
1023,515,0,511,39,1
1023,515,0,511,39,1
1023,515,0,511,39,1
1022,509,0,516,39,1
1022,509,0,516,39,1
1022,509,0,516,39,1
1022,509,0,516,39,1
1022,509,0,516,39,1
1022,509,0,516,39,1
1022,509,0,516,39,1
1022,508,0,518,39,1
1022,508,0,518,39,1
1022,508,0,518,39,1
1022,508,0,518,39,1
1022,508,0,518,39,1
1022,508,0,518,39,1
1022,509,0,512,39,1
1022,509,0,512,39,1
1022,509,0,512,39,1
1022,509,0,512,39,1
1022,509,0,512,39,1
1022,512,0,511,39,1
1022,512,0,511,39,1
1022,512,0,511,39,1
1022,512,0,511,39,1
1022,512,0,511,39,1
1022,512,0,511,39,1
1022,512,0,511,39,1
1022,510,0,502,39,1
1022,510,0,502,39,1
1022,510,0,502,39,1
1022,510,0,502,39,1
1022,510,0,502,39,1
1022,510,0,502,39,1
1022,510,0,502,39,1
1022,513,0,515,39,1
1022,513,0,515,39,1
1022,513,0,515,39,1
1022,513,0,515,39,1
1022,508,0,513,39,1
1022,508,0,513,39,1
1022,508,0,513,39,1
1022,508,0,513,39,1
1022,508,0,513,39,1
1022,508,0,513,39,1
1022,508,0,513,39,1
1022,511,0,512,39,1
1022,511,0,512,39,1
1022,511,0,512,39,1
1022,511,0,512,39,1
1022,511,0,512,39,1
1022,511,0,512,39,1
1022,511,0,512,39,1
1022,511,0,508,39,1
1022,511,0,508,39,1
1022,511,0,508,39,1
1022,511,0,508,39,1
1022,511,0,508,39,1
1022,510,0,512,39,1
1022,510,0,512,39,1
1022,510,0,512,39,1
1022,510,0,512,39,1
1022,510,0,512,39,1
1022,510,0,512,39,1
1022,510,0,512,39,1
1022,511,0,506,39,1
1022,511,0,506,39,1
1022,511,0,506,39,1
1022,511,0,506,39,1
1022,511,0,506,39,1
1022,513,0,511,39,1
1022,513,0,511,39,1
1022,513,0,511,39,1
1022,513,0,511,39,1
1022,513,0,511,39,1
1022,510,0,506,39,1
1022,510,0,506,39,1
1022,510,0,506,39,1
1022,510,0,506,39,1
1022,510,0,506,39,1
1022,510,0,506,39,1
1022,510,0,506,39,1
1022,512,0,503,39,1
1022,512,0,503,39,1
1022,512,0,503,39,1
1022,512,0,503,39,1
1022,512,0,503,39,1
1022,512,0,503,39,1
1022,511,0,502,39,1
1022,511,0,502,39,1
1022,511,0,502,39,1
1022,511,0,502,39,1
1022,511,0,502,39,1
1022,512,0,510,39,1
1022,512,0,510,39,1
1022,512,0,510,39,1
1022,512,0,510,39,1
1022,512,0,510,39,1
1022,512,0,510,39,1
1022,512,0,510,39,1
1022,510,0,510,39,1
1022,510,0,510,39,1
1022,510,0,510,39,1
1022,510,0,510,39,1
1022,510,0,510,39,1
1022,510,0,510,39,1
1022,508,0,500,39,1
1022,508,0,500,39,1
1022,508,0,500,39,1
1022,508,0,500,39,1
1022,508,0,500,39,1
1022,508,0,500,39,1
1022,508,0,500,39,1
1022,510,0,509,39,1
1022,510,0,509,39,1
1022,510,0,509,39,1
1022,510,0,509,39,1
1022,510,0,509,39,1
1022,513,0,507,39,1
1022,513,0,507,39,1
1022,513,0,507,39,1
1022,513,0,507,39,1
1022,513,0,507,39,1
1022,513,0,507,39,1
1022,512,0,508,39,1
1022,512,0,508,39,1
1022,512,0,508,39,1
1022,512,0,508,39,1
1022,512,0,508,39,1
1022,508,0,507,39,1
1022,508,0,507,39,1
1022,508,0,507,39,1
1022,508,0,507,39,1
1022,508,0,507,39,1
1022,508,0,507,39,1
1022,508,0,507,39,1
1022,511,0,513,39,1
1022,511,0,513,39,1
1022,511,0,513,39,1
1022,511,0,513,39,1
1022,511,0,513,39,1
1022,511,0,513,39,1
1022,511,0,513,39,1
1022,511,0,508,39,1
1022,511,0,508,39,1
1022,511,0,508,39,1
1022,511,0,508,39,1
1022,511,0,508,39,1
1022,511,0,508,39,1
1022,510,0,505,39,1
1022,510,0,505,39,1
1022,510,0,505,39,1
1022,510,0,505,39,1
1022,510,0,505,39,1
1022,514,0,499,39,1
1022,514,0,499,39,1
1022,514,0,499,39,1
1022,514,0,499,39,1
1022,514,0,499,39,1
1022,514,0,499,39,1
1022,511,0,512,39,1
1022,511,0,512,39,1
1022,511,0,512,39,1
1022,511,0,512,39,1
1022,511,0,512,39,1
1022,513,0,511,39,1
1022,513,0,511,39,1
1022,513,0,511,39,1
1022,513,0,511,39,1
1022,513,0,511,39,1
1022,513,0,511,39,1
1022,513,0,511,39,1
1022,510,0,509,39,1
1022,510,0,509,39,1
1022,510,0,509,39,1
1022,510,0,509,39,1
1022,510,0,509,39,1
1022,511,0,500,39,1
1022,511,0,500,39,1
1022,511,0,500,39,1
1022,511,0,500,39,1
1022,511,0,500,39,1
1022,511,0,500,39,1
1022,511,0,500,39,1
1022,510,0,508,39,1
1022,510,0,508,39,1
1022,510,0,508,39,1
1022,510,0,508,39,1
1022,510,0,508,39,1
1022,510,0,508,39,1
1022,508,0,499,39,1
1022,508,0,499,39,1
1022,508,0,499,39,1
1022,508,0,499,39,1
1022,508,0,499,39,1
1022,508,0,499,39,1
1022,509,0,510,39,1
1022,509,0,510,39,1
1022,509,0,510,39,1
1022,509,0,510,39,1
1022,509,0,510,39,1
1022,508,0,506,39,1
1022,508,0,506,39,1
1022,508,0,506,39,1
1022,508,0,506,39,1
1022,508,0,506,39,1
1022,508,0,506,39,1
1022,508,0,506,39,1
1022,511,0,499,39,1
1022,511,0,499,39,1
1022,511,0,499,39,1
1022,511,0,499,39,1
1022,511,0,499,39,1
1022,511,0,499,39,1
1022,512,0,505,39,1
1022,512,0,505,39,1
1022,512,0,505,39,1
1022,512,0,505,39,1
1022,512,0,505,39,1
1022,512,0,505,39,1
1022,508,0,505,39,1
1022,508,0,505,39,1
1022,508,0,505,39,1
1022,508,0,505,39,1
1022,508,0,505,39,1
1022,508,0,505,39,1
1022,511,0,504,39,1
1022,511,0,504,39,1
1022,511,0,504,39,1
1022,511,0,504,39,1
1022,511,0,504,39,1
1022,511,0,504,39,1
1022,513,0,505,39,1
1022,513,0,505,39,1
1022,513,0,505,39,1
1022,513,0,505,39,1
1022,513,0,505,39,1
1022,511,0,508,39,1
1022,511,0,508,39,1
1022,511,0,508,39,1
1022,511,0,508,39,1
1022,511,0,508,39,1
1022,511,0,508,39,1
1022,511,0,508,39,1
1022,512,0,504,39,1
1022,512,0,504,39,1
1022,512,0,504,39,1
1022,512,0,504,39,1
1022,512,0,504,39,1
1022,512,0,504,39,1
1022,512,0,502,39,1
1022,512,0,502,39,1
1022,512,0,502,39,1
1022,512,0,502,39,1
1022,512,0,502,39,1
1022,512,0,502,39,1
1022,509,0,503,39,1
1022,509,0,503,39,1
1022,509,0,503,39,1
1022,509,0,503,39,1
1022,509,0,503,39,1
1022,510,0,498,39,1
1022,510,0,498,39,1
1022,510,0,498,39,1
1022,510,0,498,39,1
1022,510,0,498,39,1
1022,510,0,498,39,1
1022,510,0,498,39,1
1022,512,0,502,39,1
1022,512,0,502,39,1
1022,512,0,502,39,1
1022,512,0,502,39,1
1022,512,0,502,39,1
1022,509,0,497,39,1
1022,509,0,497,39,1
1022,509,0,497,39,1
1022,509,0,497,39,1
1022,509,0,497,39,1
1022,509,0,497,39,1
1022,509,0,497,39,1
1022,511,0,492,39,1
1022,511,0,492,39,1
1022,511,0,492,39,1
1022,511,0,492,39,1
1022,511,0,492,39,1
1022,511,0,492,39,1
1022,510,0,512,39,1
1022,510,0,512,39,1
1022,510,0,512,39,1
1022,510,0,512,39,1
1022,510,0,512,39,1
1022,510,0,510,39,1
1022,510,0,510,39,1
1022,510,0,510,39,1
1022,510,0,510,39,1
1022,510,0,510,39,1
1022,510,0,510,39,1
1022,510,0,510,39,1
1022,507,0,501,39,1
1022,507,0,501,39,1
1022,507,0,501,39,1
1022,507,0,501,39,1
1022,507,0,501,39,1
1022,507,0,501,39,1
1022,507,0,501,39,1
1022,513,0,504,39,1
1022,513,0,504,39,1
1022,513,0,504,39,1
1022,513,0,504,39,1
1022,513,0,504,39,1
1022,510,0,499,39,1
1022,510,0,499,39,1
1022,510,0,499,39,1
1022,510,0,499,39,1
1022,510,0,499,39,1
1022,513,0,492,39,1
1022,513,0,492,39,1
1022,513,0,492,39,1
1022,513,0,492,39,1
1022,513,0,492,39,1
1022,513,0,492,39,1
1022,513,0,492,39,1
1022,513,0,492,39,1
1022,510,0,509,39,1
1022,510,0,509,39,1
1022,510,0,509,39,1
1022,510,0,509,39,1
1022,510,0,509,39,1
1022,514,0,499,39,1
1022,514,0,499,39,1
1022,514,0,499,39,1
1022,514,0,499,39,1
1022,514,0,499,39,1
1022,514,0,499,39,1
1022,511,0,514,39,1
1022,511,0,514,39,1
1022,511,0,514,39,1
1022,511,0,514,39,1
1022,511,0,514,39,1
1022,511,0,514,39,1
1022,511,0,514,39,1
1022,511,0,514,39,1
1022,512,0,493,39,1
1022,512,0,493,39,1
1022,512,0,493,39,1
1022,511,0,495,39,1
1022,511,0,495,39,1
1022,511,0,495,39,1
1022,511,0,495,39,1
1022,511,0,495,39,1
1022,511,0,495,39,1
1022,511,0,495,39,1
1022,512,0,500,39,1
1022,512,0,500,39,1
1022,512,0,500,39,1
1022,512,0,500,39,1
1022,512,0,500,39,1
1022,512,0,500,39,1
1022,511,0,503,39,1
1022,511,0,503,39,1
1022,511,0,503,39,1
1022,511,0,503,39,1
1022,511,0,503,39,1
1022,510,0,504,39,1
1022,510,0,504,39,1
1022,510,0,504,39,1
1022,510,0,504,39,1
1022,510,0,504,39,1
1022,510,0,504,39,1
1022,510,0,504,39,1
1022,513,0,493,39,1
1022,513,0,493,39,1
1022,513,0,493,39,1
1022,513,0,493,39,1
1022,513,0,493,39,1
1022,513,0,493,39,1
1022,511,0,495,39,1
1022,511,0,495,39,1
1022,511,0,495,39,1
1022,511,0,495,39,1
1022,511,0,495,39,1
1022,511,0,495,39,1
1022,511,0,495,39,1
1022,514,0,504,39,1
1022,514,0,504,39,1
1022,514,0,504,39,1
1022,514,0,504,39,1
1022,514,0,504,39,1
1022,511,0,496,39,1
1022,511,0,496,39,1
1022,511,0,496,39,1
1022,511,0,496,39,1
1022,511,0,496,39,1
1022,511,0,496,39,1
1022,513,0,496,39,1
1022,513,0,496,39,1
1022,513,0,496,39,1
1022,513,0,496,39,1
1022,513,0,496,39,1
1022,510,0,496,39,1
1022,510,0,496,39,1
1022,510,0,496,39,1
1022,510,0,496,39,1
1022,510,0,496,39,1
1022,510,0,496,39,1
1022,513,0,504,39,1
1022,513,0,504,39,1
1022,513,0,504,39,1
1022,513,0,504,39,1
1022,513,0,504,39,1
1022,513,0,504,39,1
1022,513,0,504,39,1
1022,508,0,492,39,1
1022,508,0,492,39,1
1022,508,0,492,39,1
1022,508,0,492,39,1
1022,508,0,492,39,1
1022,508,0,492,39,1
1022,515,0,504,39,1
1022,515,0,504,39,1
1022,515,0,504,39,1
1022,515,0,504,39,1
1022,515,0,504,39,1
1022,511,0,493,39,1
1022,511,0,493,39,1
1022,511,0,493,39,1
1022,511,0,493,39,1
1022,511,0,493,39,1
1022,511,0,493,39,1
1022,511,0,493,39,1
1022,510,0,504,39,1
1022,510,0,504,39,1
1022,510,0,504,39,1
1022,510,0,504,39,1
1022,510,0,504,39,1
1022,510,0,504,39,1
1022,516,0,489,39,1
1022,516,0,489,39,1
1022,516,0,489,39,1
1022,516,0,489,39,1
1022,516,0,489,39,1
1022,516,0,489,39,1
1022,516,0,489,39,1
1022,511,0,496,39,1
1022,511,0,496,39,1
1022,511,0,496,39,1
1022,511,0,496,39,1
1022,511,0,496,39,1
1022,511,0,496,39,1
1022,514,0,502,39,1
1022,514,0,502,39,1
1022,514,0,502,39,1
1022,514,0,502,39,1
1022,514,0,502,39,1
1022,512,0,491,39,1
1022,512,0,491,39,1
1022,512,0,491,39,1
1022,512,0,491,39,1
1022,512,0,491,39,1
1022,509,0,489,39,1
1022,509,0,489,39,1
1022,509,0,489,39,1
1022,509,0,489,39,1
1022,509,0,489,39,1
1022,509,0,489,39,1
1022,509,0,489,39,1
1022,511,0,499,39,1
1022,511,0,499,39,1
1022,511,0,499,39,1
1022,511,0,499,39,1
1022,511,0,499,39,1
1022,511,0,499,39,1
1022,511,0,499,39,1
1022,511,0,496,39,1
1022,511,0,496,39,1
1022,511,0,496,39,1
1022,511,0,496,39,1
1022,514,0,487,39,1
1022,514,0,487,39,1
1022,514,0,487,39,1
1022,514,0,487,39,1
1022,514,0,487,39,1
1022,514,0,487,39,1
1022,514,0,487,39,1
1022,512,0,495,39,1
1022,512,0,495,39,1
1022,512,0,495,39,1
1022,512,0,495,39,1
1022,512,0,495,39,1
1022,512,0,495,39,1
1022,512,0,492,39,1
1022,512,0,492,39,1
1022,512,0,492,39,1
1022,512,0,492,39,1
1022,512,0,492,39,1
1022,512,0,492,39,1
1022,512,0,492,39,1
1022,508,0,504,39,1
1022,508,0,504,39,1
1022,508,0,504,39,1
1022,508,0,504,39,1
1022,508,0,504,39,1
1022,514,0,493,39,1
1022,514,0,493,39,1
1022,514,0,493,39,1
1022,514,0,493,39,1
1022,514,0,493,39,1
1022,514,0,493,39,1
1022,514,0,493,39,1
1022,513,0,505,39,1
1022,513,0,505,39,1
1022,513,0,505,39,1
1022,513,0,505,39,1
1022,513,0,505,39,1
1022,512,0,500,39,1
1022,512,0,500,39,1
1022,512,0,500,39,1
1022,512,0,500,39,1
1022,512,0,500,39,1
1022,512,0,500,39,1
1022,510,0,508,39,1
1022,510,0,508,39,1
1022,510,0,508,39,1
1022,510,0,508,39,1
1022,510,0,508,39,1
1022,511,0,494,39,1
1022,511,0,494,39,1
1022,511,0,494,39,1
1022,511,0,494,39,1
1022,511,0,494,39,1
1022,511,0,494,39,1
1022,511,0,494,39,1
1022,511,0,494,39,1
1022,511,0,497,39,1
1022,511,0,497,39,1
1022,511,0,497,39,1
1022,511,0,497,39,1
1022,511,0,497,39,1
1022,513,0,493,39,1
1022,513,0,493,39,1
1022,513,0,493,39,1
1022,513,0,493,39,1
1022,513,0,493,39,1
1022,510,0,492,39,1
1022,510,0,492,39,1
1022,510,0,492,39,1
1022,510,0,492,39,1
1022,510,0,492,39,1
1022,510,0,492,39,1
1022,510,0,492,39,1
1022,513,0,500,39,1
1022,513,0,500,39,1
1022,513,0,500,39,1
1022,513,0,500,39,1
1022,513,0,500,39,1
1022,513,0,493,39,1
1022,513,0,493,39,1
1022,513,0,493,39,1
1022,513,0,493,39,1
1022,513,0,493,39,1
1022,513,0,493,39,1
1022,513,0,493,39,1
1022,512,0,504,39,1
1022,512,0,504,39,1
1022,512,0,504,39,1
1022,512,0,504,39,1
1022,512,0,504,39,1
1022,512,0,504,39,1
1022,512,0,504,39,1
1022,513,0,499,39,1
1022,513,0,499,39,1
1022,513,0,499,39,1
1022,513,0,499,39,1
1022,513,0,499,39,1
1022,513,0,487,39,1
1022,513,0,487,39,1
1022,513,0,487,39,1
1022,513,0,487,39,1
1022,513,0,487,39,1
1022,513,0,487,39,1
1022,513,0,502,39,1
1022,513,0,502,39,1
1022,513,0,502,39,1
1022,513,0,502,39,1
1022,513,0,502,39,1
1022,513,0,502,39,1
1022,511,0,508,39,1
1022,511,0,508,39,1
1022,511,0,508,39,1
1022,511,0,508,39,1
1022,511,0,508,39,1
1022,512,0,503,39,1
1022,512,0,503,39,1
1022,512,0,503,39,1
1022,512,0,503,39,1
1022,512,0,503,39,1
1022,512,0,503,39,1
1022,512,0,503,39,1
1022,511,0,496,39,1
1022,511,0,496,39,1
1022,511,0,496,39,1
1022,511,0,496,39,1
1022,511,0,496,39,1
1022,511,0,496,39,1
1022,511,0,496,39,1
1022,510,0,485,39,1
1022,510,0,485,39,1
1022,510,0,485,39,1
1022,510,0,485,39,1
1022,510,0,485,39,1
1022,510,0,485,39,1
1022,512,0,493,39,1
1022,512,0,493,39,1
1022,512,0,493,39,1
1022,512,0,493,39,1
1022,512,0,493,39,1
1022,510,0,506,39,1
1022,510,0,506,39,1
1022,510,0,506,39,1
1022,510,0,506,39,1
1022,510,0,506,39,1
1022,510,0,506,39,1
1022,510,0,506,39,1
1022,513,0,507,39,1
1022,513,0,507,39,1
1022,513,0,507,39,1
1022,513,0,507,39,1
1022,510,0,504,39,1
1022,510,0,504,39,1
1022,510,0,504,39,1
1022,510,0,504,39,1
1022,510,0,504,39,1
1022,510,0,504,39,1
1022,510,0,504,39,1
1022,514,0,489,39,1
1022,514,0,489,39,1
1022,514,0,489,39,1
1022,514,0,489,39,1
1022,514,0,489,39,1
1022,514,0,489,39,1
1022,514,0,489,39,1
1022,510,0,487,39,1
1022,510,0,487,39,1
1022,510,0,487,39,1
1022,510,0,487,39,1
1022,510,0,487,39,1
1022,515,0,491,39,1
1022,515,0,491,39,1
1022,515,0,491,39,1
1022,515,0,491,39,1
1022,515,0,491,39,1
1022,517,0,497,39,1
1022,517,0,497,39,1
1022,517,0,497,39,1
1022,517,0,497,39,1
1022,517,0,497,39,1
1022,517,0,497,39,1
1022,517,0,497,39,1
1022,515,0,493,39,1
1022,515,0,493,39,1
1022,515,0,493,39,1
1022,515,0,493,39,1
1022,515,0,493,39,1
1022,515,0,493,39,1
1022,515,0,493,39,1
1022,512,0,499,39,1
1022,512,0,499,39,1
1022,512,0,499,39,1
1022,512,0,499,39,1
1022,512,0,499,39,1
1022,512,0,499,39,1
1022,512,0,491,39,1
1022,512,0,491,39,1
1022,512,0,491,39,1
1022,512,0,491,39,1
1022,512,0,491,39,1
1022,512,0,491,39,1
1022,512,0,504,39,1
1022,512,0,504,39,1
1022,512,0,504,39,1
1022,512,0,504,39,1
1022,512,0,504,39,1
1022,512,0,504,39,1
1022,512,0,504,39,1
1022,509,0,492,39,1
1022,509,0,492,39,1
1022,509,0,492,39,1
1022,509,0,492,39,1
1022,509,0,492,39,1
1022,509,0,492,39,1
1022,513,0,497,39,1
1022,513,0,497,39,1
1022,513,0,497,39,1
1022,511,0,503,39,1
1022,511,0,503,39,1
1022,511,0,503,39,1
1022,511,0,503,39,1
1022,511,0,503,39,1
1022,511,0,503,39,1
1022,511,0,503,39,1
1022,512,0,502,39,1
1022,512,0,502,39,1
1022,512,0,502,39,1
1022,512,0,502,39,1
1022,512,0,502,39,1
1022,512,0,502,39,1
1022,512,0,502,39,1
1022,509,0,503,39,1
1022,509,0,503,39,1
1022,509,0,503,39,1
1022,509,0,503,39,1
1022,509,0,503,39,1
1022,509,0,503,39,1
1022,513,0,484,39,1
1022,513,0,484,39,1
1022,513,0,484,39,1
1022,513,0,484,39,1
1022,513,0,484,39,1
1022,513,0,484,39,1
1022,511,0,489,39,1
1022,511,0,489,39,1
1022,511,0,489,39,1
1022,511,0,489,39,1
1022,511,0,489,39,1
1022,511,0,489,39,1
1022,514,0,505,39,1
1022,514,0,505,39,1
1022,514,0,505,39,1
1022,514,0,505,39,1
1022,514,0,505,39,1
1022,511,0,500,39,1
1022,511,0,500,39,1
1022,511,0,500,39,1
1022,511,0,500,39,1
1022,511,0,500,39,1
1022,511,0,500,39,1
1022,509,0,498,39,1
1022,509,0,498,39,1
1022,509,0,498,39,1
1022,509,0,498,39,1
1022,509,0,498,39,1
1022,509,0,498,39,1
1022,509,0,498,39,1
1022,511,0,495,39,1
1022,511,0,495,39,1
1022,511,0,495,39,1
1022,511,0,495,39,1
1022,511,0,495,39,1
1022,511,0,495,39,1
1022,512,0,488,39,1
1022,512,0,488,39,1
1022,512,0,488,39,1
1022,512,0,488,39,1
1022,512,0,488,39,1
1022,512,0,488,39,1
1022,512,0,488,39,1
1022,509,0,515,39,1
1022,509,0,515,39,1
1022,509,0,515,39,1
1022,509,0,515,39,1
1022,509,0,515,39,1
1022,511,0,495,39,1
1022,511,0,495,39,1
1022,511,0,495,39,1
1022,511,0,495,39,1
1022,511,0,495,39,1
1022,511,0,495,39,1
1022,510,0,487,39,1
1022,510,0,487,39,1
1022,510,0,487,39,1
1022,510,0,487,39,1
1022,510,0,487,39,1
1022,514,0,500,39,1
1022,514,0,500,39,1
1022,514,0,500,39,1
1022,514,0,500,39,1
1022,514,0,500,39,1
1022,514,0,500,39,1
1022,513,0,485,39,1
1022,513,0,485,39,1
1022,513,0,485,39,1
1022,513,0,485,39,1
1022,513,0,485,39,1
1022,513,0,485,39,1
1022,513,0,485,39,1
1022,512,0,490,39,1
1022,512,0,490,39,1
1022,512,0,490,39,1
1022,512,0,490,39,1
1022,512,0,490,39,1
1022,510,0,504,39,1
1022,510,0,504,39,1
1022,510,0,504,39,1
1022,510,0,504,39,1
1022,510,0,504,39,1
1022,511,0,505,39,1
1022,511,0,505,39,1
1022,511,0,505,39,1
1022,511,0,505,39,1
1022,511,0,505,39,1
1022,511,0,505,39,1
1022,511,0,505,39,1
1022,513,0,493,39,1
1022,513,0,493,39,1
1022,513,0,493,39,1
1022,513,0,493,39,1
1022,513,0,493,39,1
1022,513,0,493,39,1
1022,511,0,479,39,1
1022,511,0,479,39,1
1022,511,0,479,39,1
1022,511,0,479,39,1
1022,511,0,479,39,1
1022,511,0,479,39,1
1022,511,0,479,39,1
1022,511,0,492,39,1
1022,511,0,492,39,1
1022,511,0,492,39,1
1022,511,0,492,39,1
1022,511,0,492,39,1
1022,511,0,482,39,1
1022,511,0,482,39,1
1022,511,0,482,39,1
1022,511,0,482,39,1
1022,511,0,482,39,1
1022,511,0,482,39,1
1022,508,0,493,39,1
1022,508,0,493,39,1
1022,508,0,493,39,1
1022,508,0,493,39,1
1022,508,0,493,39,1
1022,512,0,484,39,1
1022,512,0,484,39,1
1022,512,0,484,39,1
1022,512,0,484,39,1
1022,512,0,484,39,1
1022,512,0,484,39,1
1022,512,0,484,39,1
1022,513,0,495,39,1
1022,513,0,495,39,1
1022,513,0,495,39,1
1022,513,0,495,39,1
1022,513,0,495,39,1
1022,513,0,495,39,1
1022,511,0,492,39,1
1022,511,0,492,39,1
1022,511,0,492,39,1
1022,511,0,492,39,1
1022,511,0,492,39,1
1022,511,0,492,39,1
1022,513,0,492,39,1
1022,513,0,492,39,1
1022,513,0,492,39,1
1022,513,0,492,39,1
1022,513,0,492,39,1
1022,513,0,502,39,1
1022,513,0,502,39,1
1022,513,0,502,39,1
1022,513,0,502,39,1
1022,513,0,502,39,1
1022,513,0,502,39,1
1022,513,0,502,39,1
1022,514,0,501,39,1
1022,514,0,501,39,1
1022,514,0,501,39,1
1022,514,0,501,39,1
1022,514,0,501,39,1
1022,511,0,498,39,1
1022,511,0,498,39,1
1022,511,0,498,39,1
1022,511,0,498,39,1
1022,511,0,498,39,1
1022,511,0,498,39,1
1022,511,0,498,39,1
1022,511,0,482,39,1
1022,511,0,482,39,1
1022,511,0,482,39,1
1022,511,0,482,39,1
1022,511,0,482,39,1
1022,511,0,482,39,1
1022,511,0,482,39,1
1022,514,0,490,39,1
1022,514,0,490,39,1
1022,514,0,490,39,1
1022,514,0,490,39,1
1022,514,0,490,39,1
1022,513,0,501,39,1
1022,513,0,501,39,1
1022,513,0,501,39,1
1022,513,0,501,39,1
1022,513,0,501,39,1
1022,511,0,491,39,1
1022,511,0,491,39,1
1022,511,0,491,39,1
1022,511,0,491,39,1
1022,511,0,491,39,1
1022,511,0,491,39,1
1022,511,0,491,39,1
1022,510,0,492,39,1
1022,510,0,492,39,1
1022,510,0,492,39,1
1022,510,0,492,39,1
1022,510,0,492,39,1
1022,513,0,497,39,1
1022,513,0,497,39,1
1022,513,0,497,39,1
1022,513,0,497,39,1
1022,513,0,497,39,1
1022,513,0,497,39,1
1022,513,0,497,39,1
1022,511,0,497,39,1
1022,511,0,497,39,1
1022,511,0,497,39,1
1022,511,0,497,39,1
1022,511,0,497,39,1
1022,511,0,497,39,1
1022,511,0,497,39,1
1022,511,0,507,39,1
1022,511,0,507,39,1
1022,511,0,507,39,1
1022,511,0,507,39,1
1022,511,0,491,39,1
1022,511,0,491,39,1
1022,511,0,491,39,1
1022,511,0,491,39,1
1022,511,0,491,39,1
1022,511,0,491,39,1
1022,511,0,491,39,1
1022,511,0,497,39,1
1022,511,0,497,39,1
1022,511,0,497,39,1
1022,511,0,497,39,1
1022,511,0,497,39,1
1022,513,0,492,39,1
1022,513,0,492,39,1
1022,513,0,492,39,1
1022,513,0,492,39,1
1022,513,0,492,39,1
1022,513,0,492,39,1
1022,513,0,492,39,1
1022,513,0,507,39,1
1022,513,0,507,39,1
1022,513,0,507,39,1
1022,513,0,507,39,1
1022,513,0,507,39,1
1022,513,0,507,39,1
1022,513,0,507,39,1
1022,509,0,489,39,1
1022,509,0,489,39,1
1022,509,0,489,39,1
1022,509,0,489,39,1
1022,509,0,489,39,1
1022,513,0,500,39,1
1022,513,0,500,39,1
1022,513,0,500,39,1
1022,513,0,500,39,1
1022,513,0,500,39,1
1022,513,0,509,39,1
1022,513,0,509,39,1
1022,513,0,509,39,1
1022,513,0,509,39,1
1022,513,0,509,39,1
1022,513,0,509,39,1
1022,513,0,509,39,1
1022,513,0,492,39,1
1022,513,0,492,39,1
1022,513,0,492,39,1
1022,513,0,492,39,1
1022,513,0,492,39,1
1022,513,0,492,39,1
1022,507,0,491,39,1
1022,507,0,491,39,1
1022,507,0,491,39,1
1022,507,0,491,39,1
1022,507,0,491,39,1
1022,510,0,509,39,1
1022,510,0,509,39,1
1022,510,0,509,39,1
1022,510,0,509,39,1
1022,510,0,509,39,1
1022,510,0,509,39,1
1022,510,0,509,39,1
1022,509,0,494,39,1
1022,509,0,494,39,1
1022,509,0,494,39,1
1022,509,0,494,39,1
1022,509,0,494,39,1
1022,509,0,494,39,1
1022,512,0,490,39,1
1022,512,0,490,39,1
1022,512,0,490,39,1
1022,512,0,490,39,1
1022,512,0,490,39,1
1022,512,0,490,39,1
1022,513,0,496,39,1
1022,513,0,496,39,1
1022,513,0,496,39,1
1022,513,0,496,39,1
1022,513,0,496,39,1
1022,513,0,496,39,1
1022,509,0,493,39,1
1022,509,0,493,39,1
1022,509,0,493,39,1
1022,509,0,493,39,1
1022,509,0,493,39,1
1022,509,0,493,39,1
1022,513,0,492,39,1
1022,513,0,492,39,1
1022,513,0,492,39,1
1022,513,0,492,39,1
1022,513,0,492,39,1
1022,513,0,492,39,1
1022,513,0,492,39,1
1022,511,0,493,39,1
1022,511,0,493,39,1
1022,511,0,493,39,1
1022,511,0,493,39,1
1022,511,0,493,39,1
1022,510,0,503,39,1
1022,510,0,503,39,1
1022,510,0,503,39,1
1022,510,0,503,39,1
1022,510,0,503,39,1
1022,510,0,503,39,1
1022,512,0,492,39,1
1022,512,0,492,39,1
1022,512,0,492,39,1
1022,512,0,492,39,1
1022,512,0,492,39,1
1022,513,0,486,39,1
1022,513,0,486,39,1
1022,513,0,486,39,1
1022,513,0,486,39,1
1022,513,0,486,39,1
1022,513,0,486,39,1
1022,511,0,497,39,1
1022,511,0,497,39,1
1022,511,0,497,39,1
1022,511,0,497,39,1
1022,511,0,497,39,1
1022,511,0,497,39,1
1022,511,0,497,39,1
1022,512,0,501,39,1
1022,512,0,501,39,1
1022,512,0,501,39,1
1022,512,0,501,39,1
1022,512,0,501,39,1
1022,513,0,494,39,1
1022,513,0,494,39,1
1022,513,0,494,39,1
1022,513,0,494,39,1
1022,513,0,494,39,1
1022,513,0,494,39,1
1022,513,0,494,39,1
1022,510,0,489,39,1
1022,510,0,489,39,1
1022,510,0,489,39,1
1022,510,0,489,39,1
1022,510,0,489,39,1
1022,510,0,489,39,1
1022,514,0,497,39,1
1022,514,0,497,39,1
1022,514,0,497,39,1
1022,514,0,497,39,1
1022,514,0,497,39,1
1022,512,0,500,39,1
1022,512,0,500,39,1
1022,512,0,500,39,1
1022,512,0,500,39,1
1022,512,0,500,39,1
1022,512,0,500,39,1
1022,512,0,500,39,1
1022,511,0,489,39,1
1022,511,0,489,39,1
1022,511,0,489,39,1
1022,511,0,489,39,1
1022,511,0,489,39,1
1022,511,0,489,39,1
1022,514,0,492,39,1
1022,514,0,492,39,1
1022,514,0,492,39,1
1022,514,0,492,39,1
1022,514,0,492,39,1
1022,514,0,492,39,1
1022,514,0,492,39,1
1022,512,0,486,39,1
1022,512,0,486,39,1
1022,512,0,486,39,1
1022,512,0,486,39,1
1022,512,0,486,39,1
1022,510,0,497,39,1
1022,510,0,497,39,1
1022,510,0,497,39,1
1022,510,0,497,39,1
1022,510,0,497,39,1
1022,510,0,497,39,1
1022,512,0,483,39,1
1022,512,0,483,39,1
1022,512,0,483,39,1
1022,512,0,483,39,1
1022,512,0,483,39,1
1022,512,0,483,39,1
1022,514,0,492,39,1
1022,514,0,492,39,1
1022,514,0,492,39,1
1022,514,0,492,39,1
1022,514,0,492,39,1
1022,511,0,495,39,1
1022,511,0,495,39,1
1022,511,0,495,39,1
1022,511,0,495,39,1
1022,511,0,495,39,1
1022,511,0,495,39,1
1022,511,0,495,39,1
1022,511,0,505,39,1
1022,511,0,505,39,1
1022,511,0,505,39,1
1022,511,0,505,39,1
1022,511,0,505,39,1
1022,511,0,505,39,1
1022,511,0,505,39,1
1022,509,0,495,39,1
1022,509,0,495,39,1
1022,509,0,495,39,1
1022,509,0,495,39,1
1022,509,0,495,39,1
1022,509,0,495,39,1
1022,512,0,495,39,1
1022,512,0,495,39,1
1022,512,0,495,39,1
1022,512,0,495,39,1
1022,512,0,495,39,1
1022,512,0,495,39,1
1022,512,0,495,39,1
1022,516,0,500,39,1
1022,516,0,500,39,1
1022,516,0,500,39,1
1022,516,0,500,39,1
1022,513,0,495,39,1
1022,513,0,495,39,1
1022,513,0,495,39,1
1022,513,0,495,39,1
1022,513,0,495,39,1
1022,513,0,495,39,1
1022,511,0,501,39,1
1022,511,0,501,39,1
1022,511,0,501,39,1
1022,511,0,501,39,1
1022,511,0,501,39,1
1022,511,0,501,39,1
1022,511,0,501,39,1
1022,511,0,501,39,1
1022,511,0,501,39,1
1022,511,0,496,39,1
1022,511,0,496,39,1
1022,511,0,496,39,1
1022,511,0,496,39,1
1022,515,0,499,39,1
1022,515,0,499,39,1
1022,515,0,499,39,1
1022,515,0,499,39,1
1022,515,0,499,39,1
1022,512,0,488,39,1
1022,512,0,488,39,1
1022,512,0,488,39,1
1022,512,0,488,39,1
1022,512,0,488,39,1
1022,512,0,488,39,1
1022,512,0,488,39,1
1022,512,0,488,39,1
1022,509,0,501,39,1
1022,509,0,501,39,1
1022,509,0,501,39,1
1022,513,0,503,39,1
1022,513,0,503,39,1
1022,513,0,503,39,1
1022,513,0,503,39,1
1022,513,0,503,39,1
1022,513,0,503,39,1
1022,513,0,503,39,1
1022,513,0,492,39,1
1022,513,0,492,39,1
1022,513,0,492,39,1
1022,513,0,492,39,1
1022,513,0,492,39,1
1022,513,0,492,39,1
1022,513,0,492,39,1
1022,513,0,492,39,1
1022,513,0,492,39,1
1022,512,0,498,38,1
1022,512,0,498,38,1
1022,512,0,498,38,1
1022,513,0,491,39,1
1022,513,0,491,39,1
1022,513,0,491,39,1
1022,513,0,491,39,1
1022,513,0,491,39,1
1022,513,0,491,39,1
1022,511,0,497,39,1
1022,511,0,497,39,1
1022,511,0,497,39,1
1022,511,0,497,39,1
1022,511,0,497,39,1
1022,511,0,497,39,1
1022,511,0,497,39,1
1022,511,0,497,39,1
1022,511,0,497,39,1
1022,511,0,513,39,1
1022,511,0,513,39,1
1022,511,0,513,39,1
1022,512,0,502,39,1
1022,512,0,502,39,1
1022,512,0,502,39,1
1022,512,0,502,39,1
1022,512,0,502,39,1
1022,512,0,502,39,1
1022,512,0,492,39,1
1022,512,0,492,39,1
1022,512,0,492,39,1
1022,512,0,492,39,1
1022,512,0,492,39,1
1022,512,0,492,39,1
1022,513,0,492,39,1
1022,513,0,492,39,1
1022,513,0,492,39,1
1022,513,0,492,39,1
1022,513,0,492,39,1
1022,513,0,492,39,1
1022,510,0,501,39,1
1022,510,0,501,39,1
1022,510,0,501,39,1
1022,510,0,501,39,1
1022,510,0,501,39,1
1022,510,0,501,39,1
1022,512,0,493,39,1
1022,512,0,493,39,1
1022,512,0,493,39,1
1022,512,0,493,39,1
1022,512,0,493,39,1
1022,512,0,493,39,1
1022,512,0,499,39,1
1022,512,0,499,39,1
1022,512,0,499,39,1
1022,512,0,499,39,1
1022,512,0,499,39,1
1022,512,0,497,39,1
1022,512,0,497,39,1
1022,512,0,497,39,1
1022,512,0,497,39,1
1022,512,0,497,39,1
1022,512,0,497,39,1
1022,512,0,497,39,1
1022,513,0,492,39,1
1022,513,0,492,39,1
1022,513,0,492,39,1
1022,513,0,492,39,1
1022,513,0,492,39,1
1022,513,0,492,39,1
1022,511,0,487,39,1
1022,511,0,487,39,1
1022,511,0,487,39,1
1022,511,0,487,39,1
1022,511,0,487,39,1
1022,511,0,487,39,1
1022,513,0,489,39,1
1022,513,0,489,39,1
1022,513,0,489,39,1
1022,513,0,489,39,1
1022,513,0,489,39,1
1022,511,0,500,39,1
1022,511,0,500,39,1
1022,511,0,500,39,1
1022,511,0,500,39,1
1022,511,0,500,39,1
1022,511,0,500,39,1
1022,511,0,500,39,1
1022,514,0,496,39,1
1022,514,0,496,39,1
1022,514,0,496,39,1
1022,514,0,496,39,1
1022,514,0,496,39,1
1022,512,0,494,39,1
1022,512,0,494,39,1
1022,512,0,494,39,1
1022,512,0,494,39,1
1022,512,0,494,39,1
1022,512,0,494,39,1
1022,512,0,494,39,1
1022,513,0,507,39,1
1022,513,0,507,39,1
1022,513,0,507,39,1
1022,513,0,507,39,1
1022,513,0,507,39,1
1022,513,0,507,39,1
1022,511,0,497,39,1
1022,511,0,497,39,1
1022,511,0,497,39,1
1022,511,0,497,39,1
1022,511,0,497,39,1
1022,511,0,497,39,1
1022,511,0,497,39,1
1022,515,0,482,39,1
1022,515,0,482,39,1
1022,515,0,482,39,1
1022,515,0,482,39,1
1022,512,0,496,39,1
1022,512,0,496,39,1
1022,512,0,496,39,1
1022,512,0,496,39,1
1022,512,0,496,39,1
1022,512,0,496,39,1
1022,512,0,496,39,1
1022,511,0,490,39,1
1022,511,0,490,39,1
1022,511,0,490,39,1
1022,511,0,490,39,1
1022,511,0,490,39,1
1022,511,0,490,39,1
1022,511,0,490,39,1
1022,514,0,494,39,1
1022,514,0,494,39,1
1022,514,0,494,39,1
1022,514,0,494,39,1
1022,514,0,494,39,1
1022,514,0,492,39,1
1022,514,0,492,39,1
1022,514,0,492,39,1
1022,514,0,492,39,1
1022,514,0,492,39,1
1022,514,0,492,39,1
1022,512,0,495,39,1
1022,512,0,495,39,1
1022,512,0,495,39,1
1022,512,0,495,39,1
1022,512,0,495,39,1
1022,512,0,481,39,1
1022,512,0,481,39,1
1022,512,0,481,39,1
1022,512,0,481,39,1
1022,512,0,481,39,1
1022,512,0,481,39,1
1022,512,0,481,39,1
1022,512,0,481,39,1
1022,516,0,498,39,1
1022,516,0,498,39,1
1022,516,0,498,39,1
1022,516,0,498,39,1
1022,516,0,498,39,1
1022,511,0,504,39,1
1022,511,0,504,39,1
1022,511,0,504,39,1
1022,511,0,504,39,1
1022,511,0,504,39,1
1022,516,0,484,39,1
1022,516,0,484,39,1
1022,516,0,484,39,1
1022,516,0,484,39,1
1022,516,0,484,39,1
1022,516,0,484,39,1
1022,516,0,484,39,1
1022,510,0,497,39,1
1022,510,0,497,39,1
1022,510,0,497,39,1
1022,510,0,497,39,1
1022,510,0,497,39,1
1022,510,0,497,39,1
1022,513,0,494,39,1
1022,513,0,494,39,1
1022,513,0,494,39,1
1022,513,0,494,39,1
1022,513,0,494,39,1
1022,509,0,493,39,1
1022,509,0,493,39,1
1022,509,0,493,39,1
1022,509,0,493,39,1
1022,509,0,493,39,1
1022,509,0,493,39,1
1022,509,0,493,39,1
1022,514,0,503,39,1
1022,514,0,503,39,1
1022,514,0,503,39,1
1022,514,0,503,39,1
1022,514,0,503,39,1
1022,514,0,503,39,1
1022,513,0,503,39,1
1022,513,0,503,39,1
1022,513,0,503,39,1
1022,513,0,503,39,1
1022,513,0,503,39,1
1022,510,0,496,39,1
1022,510,0,496,39,1
1022,510,0,496,39,1
1022,510,0,496,39,1
1022,510,0,496,39,1
1022,510,0,496,39,1
1022,510,0,496,39,1
1022,511,0,488,39,1
1022,511,0,488,39,1
1022,511,0,488,39,1
1022,511,0,488,39,1
1022,511,0,488,39,1
1022,511,0,488,39,1
1022,513,0,491,39,1
1022,513,0,491,39,1
1022,513,0,491,39,1
1022,513,0,491,39,1
1022,513,0,491,39,1
1022,512,0,505,39,1
1022,512,0,505,39,1
1022,512,0,505,39,1
1022,512,0,505,39,1
1022,512,0,505,39,1
1022,512,0,505,39,1
1022,512,0,505,39,1
1022,510,0,498,39,1
1022,510,0,498,39,1
1022,510,0,498,39,1
1022,510,0,498,39,1
1022,510,0,498,39,1
1022,510,0,498,39,1
1022,513,0,499,39,1
1022,513,0,499,39,1
1022,513,0,499,39,1
1022,513,0,499,39,1
1022,513,0,499,39,1
1022,513,0,499,39,1
1022,513,0,499,39,1
1022,510,0,484,39,1
1022,510,0,484,39,1
1022,510,0,484,39,1
1022,510,0,484,39,1
1022,510,0,484,39,1
1022,510,0,484,39,1
1022,512,0,492,39,1
1022,512,0,492,39,1
1022,512,0,492,39,1
1022,512,0,492,39,1
1022,512,0,492,39,1
1022,512,0,492,39,1
1022,513,0,498,39,1
1022,513,0,498,39,1
1022,513,0,498,39,1
1022,513,0,498,39,1
1022,513,0,498,39,1
1022,510,0,500,39,1
1022,510,0,500,39,1
1022,510,0,500,39,1
1022,510,0,500,39,1
1022,510,0,500,39,1
1022,510,0,496,39,1
1022,510,0,496,39,1
1022,510,0,496,39,1
1022,510,0,496,39,1
1022,510,0,496,39,1
1022,510,0,496,39,1
1022,510,0,496,39,1
1022,511,0,489,39,1
1022,511,0,489,39,1
1022,511,0,489,39,1
1022,511,0,489,39,1
1022,511,0,489,39,1
1022,511,0,489,39,1
1022,515,0,493,39,1
1022,515,0,493,39,1
1022,515,0,493,39,1
1022,515,0,493,39,1
1022,515,0,493,39,1
1022,513,0,492,39,1
1022,513,0,492,39,1
1022,513,0,492,39,1
1022,513,0,492,39,1
1022,513,0,492,39,1
1022,513,0,492,39,1
1022,513,0,492,39,1
1022,511,0,489,39,1
1022,511,0,489,39,1
1022,511,0,489,39,1
1022,511,0,489,39,1
1022,511,0,489,39,1
1022,510,0,490,39,1
1022,510,0,490,39,1
1022,510,0,490,39,1
1022,510,0,490,39,1
1022,510,0,490,39,1
1022,510,0,490,39,1
1022,510,0,490,39,1
1022,508,0,502,39,1
1022,508,0,502,39,1
1022,508,0,502,39,1
1022,508,0,502,39,1
1022,508,0,502,39,1
1022,508,0,502,39,1
1022,508,0,502,39,1
1022,511,0,493,39,1
1022,511,0,493,39,1
1022,511,0,493,39,1
1022,511,0,493,39,1
1022,511,0,493,39,1
1022,511,0,493,39,1
1022,513,0,499,39,1
1022,513,0,499,39,1
1022,513,0,499,39,1
1022,513,0,499,39,1
1022,513,0,499,39,1
1022,511,0,495,39,1
1022,511,0,495,39,1
1022,511,0,495,39,1
1022,511,0,495,39,1
1022,511,0,495,39,1
1022,511,0,495,39,1
1022,514,0,478,39,1
1022,514,0,478,39,1
1022,514,0,478,39,1
1022,514,0,478,39,1
1022,514,0,478,39,1
1022,513,0,499,39,1
1022,513,0,499,39,1
1022,513,0,499,39,1
1022,513,0,499,39,1
1022,513,0,499,39,1
1022,513,0,499,39,1
1022,513,0,499,39,1
1022,513,0,492,39,1
1022,513,0,492,39,1
1022,513,0,492,39,1
1022,513,0,492,39,1
1022,513,0,492,39,1
1022,513,0,492,39,1
1022,513,0,493,39,1
1022,513,0,493,39,1
1022,513,0,493,39,1
1022,513,0,493,39,1
1022,513,0,493,39,1
1022,513,0,493,39,1
1022,513,0,493,39,1
1022,508,0,503,39,1
1022,508,0,503,39,1
1022,508,0,503,39,1
1022,508,0,503,39,1
1022,508,0,503,39,1
1022,510,0,496,39,1
1022,510,0,496,39,1
1022,510,0,496,39,1
1022,510,0,496,39,1
1022,510,0,496,39,1
1022,510,0,496,39,1
1022,510,0,497,39,1
1022,510,0,497,39,1
1022,510,0,497,39,1
1022,510,0,497,39,1
1022,510,0,497,39,1
1022,511,0,500,39,1
1022,511,0,500,39,1
1022,511,0,500,39,1
1022,511,0,500,39,1
1022,511,0,500,39,1
1022,511,0,500,39,1
1022,511,0,500,39,1
1022,513,0,492,39,1
1022,513,0,492,39,1
1022,513,0,492,39,1
1022,513,0,492,39,1
1022,513,0,492,39,1
1022,513,0,492,39,1
1022,513,0,492,39,1
1022,513,0,491,39,1
1022,513,0,491,39,1
1022,513,0,491,39,1
1022,513,0,491,39,1
1022,513,0,491,39,1
1022,513,0,497,39,1
1022,513,0,497,39,1
1022,513,0,497,39,1
1022,513,0,497,39,1
1022,513,0,497,39,1
1022,513,0,497,39,1
1022,513,0,497,39,1
1022,511,0,489,39,1
1022,511,0,489,39,1
1022,511,0,489,39,1
1022,511,0,489,39,1
1022,511,0,489,39,1
1022,512,0,492,39,1
1022,512,0,492,39,1
1022,512,0,492,39,1
1022,512,0,492,39,1
1022,512,0,492,39,1
1022,512,0,500,39,1
1022,512,0,500,39,1
1022,512,0,500,39,1
1022,512,0,500,39,1
1022,512,0,500,39,1
1022,512,0,500,39,1
1022,512,0,500,39,1
1022,511,0,492,39,1
1022,511,0,492,39,1
1022,511,0,492,39,1
1022,511,0,492,39,1
1022,511,0,492,39,1
1022,511,0,492,39,1
1022,514,0,488,39,1
1022,514,0,488,39,1
1022,514,0,488,39,1
1022,514,0,488,39,1
1022,514,0,488,39,1
1022,514,0,488,39,1
1022,513,0,498,39,1
1022,513,0,498,39,1
1022,513,0,498,39,1
1022,513,0,498,39,1
1022,513,0,498,39,1
1022,512,0,497,39,1
1022,512,0,497,39,1
1022,512,0,497,39,1
1022,512,0,497,39,1
1022,512,0,497,39,1
1022,512,0,497,39,1
1022,512,0,497,39,1
1022,512,0,490,39,1
1022,512,0,490,39,1
1022,512,0,490,39,1
1022,512,0,490,39,1
1022,512,0,490,39,1
1022,513,0,481,39,1
1022,513,0,481,39,1
1022,513,0,481,39,1
1022,513,0,481,39,1
1022,513,0,481,39,1
1022,513,0,481,39,1
1022,513,0,481,39,1
1022,514,0,499,39,1
1022,514,0,499,39,1
1022,514,0,499,39,1
1022,514,0,499,39,1
1022,514,0,499,39,1
1022,514,0,499,39,1
1022,512,0,495,39,1
1022,512,0,495,39,1
1022,512,0,495,39,1
1022,512,0,495,39,1
1022,512,0,495,39,1
1022,512,0,495,39,1
1022,512,0,495,39,1
1022,511,0,493,39,1
1022,511,0,493,39,1
1022,511,0,493,39,1
1022,511,0,493,39,1
1022,511,0,493,39,1
1022,511,0,493,39,1
1022,513,0,493,39,1
1022,513,0,493,39,1
1022,513,0,493,39,1
1022,513,0,493,39,1
1022,513,0,493,39,1
1022,513,0,497,39,1
1022,513,0,497,39,1
1022,513,0,497,39,1
1022,513,0,497,39,1
1022,513,0,497,39,1
1022,515,0,491,39,1
1022,515,0,491,39,1
1022,515,0,491,39,1
1022,515,0,491,39,1
1022,515,0,491,39,1
1022,515,0,491,39,1
1022,513,0,490,39,1
1022,513,0,490,39,1
1022,513,0,490,39,1
1022,513,0,490,39,1
1022,513,0,490,39,1
1022,513,0,490,39,1
1022,513,0,490,39,1
1022,511,0,492,39,1
1022,511,0,492,39,1
1022,511,0,492,39,1
1022,511,0,492,39,1
1022,511,0,492,39,1
1022,511,0,492,39,1
1022,511,0,492,39,1
1022,511,0,496,39,1
1022,511,0,496,39,1
1022,511,0,496,39,1
1022,511,0,496,39,1
1022,511,0,496,39,1
1022,511,0,496,39,1
1022,518,0,489,39,1
1022,518,0,489,39,1
1022,518,0,489,39,1
1022,518,0,489,39,1
1022,518,0,489,39,1
1022,512,0,484,39,1
1022,512,0,484,39,1
1022,512,0,484,39,1
1022,512,0,484,39,1
1022,512,0,484,39,1
1022,513,0,496,39,1
1022,513,0,496,39,1
1022,513,0,496,39,1
1022,513,0,496,39,1
1022,513,0,496,39,1
1022,513,0,496,39,1
1022,513,0,496,39,1
1022,511,0,487,39,1
1022,511,0,487,39,1
1022,511,0,487,39,1
1022,511,0,487,39,1
1022,511,0,487,39,1
1022,511,0,487,39,1
1022,509,0,495,39,1
1022,509,0,495,39,1
1022,509,0,495,39,1
1022,509,0,495,39,1
1022,509,0,495,39,1
1022,512,0,486,39,1
1022,512,0,486,39,1
1022,512,0,486,39,1
1022,512,0,486,39,1
1022,512,0,486,39,1
1022,512,0,486,39,1
1022,512,0,486,39,1
1022,514,0,498,39,1
1022,514,0,498,39,1
1022,514,0,498,39,1
1022,514,0,498,39,1
1022,514,0,498,39,1
1022,514,0,498,39,1
1022,510,0,495,39,1
1022,510,0,495,39,1
1022,510,0,495,39,1
1022,510,0,495,39,1
1022,510,0,495,39,1
1022,510,0,495,39,1
1022,510,0,495,39,1
1022,511,0,495,39,1
1022,511,0,495,39,1
1022,511,0,495,39,1
1022,511,0,495,39,1
1022,511,0,495,39,1
1022,512,0,484,39,1
1022,512,0,484,39,1
1022,512,0,484,39,1
1022,512,0,484,39,1
1022,512,0,484,39,1
1022,512,0,484,39,1
1022,510,0,493,39,1
1022,510,0,493,39,1
1022,510,0,493,39,1
1022,510,0,493,39,1
1022,510,0,493,39,1
1022,512,0,489,39,1
1022,512,0,489,39,1
1022,512,0,489,39,1
1022,512,0,489,39,1
1022,512,0,489,39,1
1022,512,0,489,39,1
1022,511,0,498,39,1
1022,511,0,498,39,1
1022,511,0,498,39,1
1022,511,0,498,39,1
1022,511,0,498,39,1
1022,511,0,498,39,1
1022,511,0,498,39,1
1022,511,0,498,39,1
1022,512,0,495,39,1
1022,512,0,495,39,1
1022,512,0,495,39,1
1022,512,0,495,39,1
1022,512,0,491,39,1
1022,512,0,491,39,1
1022,512,0,491,39,1
1022,512,0,491,39,1
1022,512,0,491,39,1
1022,512,0,491,39,1
1022,512,0,491,39,1
1022,509,0,510,39,1
1022,509,0,510,39,1
1022,509,0,510,39,1
1022,509,0,510,39,1
1022,509,0,510,39,1
1022,509,0,510,39,1
1022,512,0,488,39,1
1022,512,0,488,39,1
1022,512,0,488,39,1
1022,512,0,488,39,1
1022,512,0,488,39,1
1022,512,0,488,39,1
1022,512,0,488,39,1
1022,512,0,488,39,1
1022,512,0,488,39,1
1022,512,0,488,39,1
1022,512,0,488,39,1
1022,512,0,488,39,1
1022,510,0,491,39,1
1022,510,0,491,39,1
1022,510,0,491,39,1
1022,510,0,491,39,1
1022,510,0,491,39,1
1022,510,0,491,39,1
1022,510,0,501,39,1
1022,510,0,501,39,1
1022,510,0,501,39,1
1022,510,0,501,39,1
1022,510,0,501,39,1
1022,510,0,501,39,1
1022,512,0,491,39,1
1022,512,0,491,39,1
1022,512,0,491,39,1
1022,512,0,491,39,1
1022,512,0,491,39,1
1022,512,0,491,39,1
1022,512,0,491,39,1
1022,512,0,491,39,1
1022,514,0,501,39,1
1022,514,0,501,39,1
1022,514,0,501,39,1
1022,514,0,501,39,1
1022,514,0,501,39,1
1022,515,0,492,39,1
1022,515,0,492,39,1
1022,515,0,492,39,1
1022,515,0,492,39,1
1022,512,0,493,39,1
1022,512,0,493,39,1
1022,512,0,493,39,1
1022,512,0,493,39,1
1022,512,0,493,39,1
1022,512,0,493,39,1
1022,512,0,493,39,1
1022,513,0,497,39,1
1022,513,0,497,39,1
1022,513,0,497,39,1
1022,513,0,497,39,1
1022,513,0,497,39,1
1022,513,0,497,39,1
1022,513,0,495,39,1
1022,513,0,495,39,1
1022,513,0,495,39,1
1022,513,0,495,39,1
1022,513,0,495,39,1
1022,513,0,495,39,1
1022,511,0,495,39,1
1022,511,0,495,39,1
1022,511,0,495,39,1
1022,511,0,495,39,1
1022,511,0,495,39,1
1022,511,0,495,39,1
1022,508,0,491,39,1
1022,508,0,491,39,1
1022,508,0,491,39,1
1022,508,0,491,39,1
1022,508,0,491,39,1
1022,508,0,491,39,1
1022,511,0,496,39,1
1022,511,0,496,39,1
1022,511,0,496,39,1
1022,511,0,496,39,1
1022,511,0,496,39,1
1022,511,0,496,39,1
1022,513,0,495,39,1
1022,513,0,495,39,1
1022,513,0,495,39,1
1022,513,0,495,39,1
1022,513,0,495,39,1
1022,512,0,489,39,1
1022,512,0,489,39,1
1022,512,0,489,39,1
1022,512,0,489,39,1
1022,512,0,489,39,1
1022,512,0,489,39,1
1022,516,0,496,39,1
1022,516,0,496,39,1
1022,516,0,496,39,1
1022,516,0,496,39,1
1022,516,0,496,39,1
1022,516,0,496,39,1
1022,511,0,489,39,1
1022,511,0,489,39,1
1022,511,0,489,39,1
1022,511,0,489,39,1
1022,511,0,489,39,1
1022,511,0,489,39,1
1022,513,0,489,39,1
1022,513,0,489,39,1
1022,513,0,489,39,1
1022,513,0,489,39,1
1022,513,0,489,39,1
1022,513,0,489,39,1
1022,512,0,487,39,1
1022,512,0,487,39,1
1022,512,0,487,39,1
1022,512,0,487,39,1
1022,512,0,487,39,1
1022,512,0,487,39,1
1022,512,0,487,39,1
1022,513,0,490,39,1
1022,513,0,490,39,1
1022,513,0,490,39,1
1022,513,0,490,39,1
1022,513,0,490,39,1
1022,513,0,490,39,1
1022,513,0,490,39,1
1022,513,0,490,39,1
1022,509,0,496,39,1
1022,509,0,496,39,1
1022,509,0,496,39,1
1022,509,0,496,39,1
1022,509,0,496,39,1
1022,509,0,496,39,1
1022,509,0,496,39,1
1022,513,0,497,39,1
1022,513,0,497,39,1
1022,509,0,491,39,1
1022,509,0,491,39,1
1022,509,0,491,39,1
1022,509,0,491,39,1
1022,509,0,491,39,1
1022,509,0,491,39,1
1022,509,0,491,39,1
1022,509,0,491,39,1
1022,509,0,491,39,1
1022,512,0,484,39,1
1022,512,0,484,39,1
1022,512,0,484,39,1
1022,514,0,500,39,1
1022,514,0,500,39,1
1022,514,0,500,39,1
1022,514,0,500,39,1
1022,514,0,500,39,1
1022,514,0,500,39,1
1022,512,0,494,39,1
1022,512,0,494,39,1
1022,512,0,494,39,1
1022,512,0,494,39,1
1022,512,0,494,39,1
1022,512,0,494,39,1
1022,508,0,495,39,1
1022,508,0,495,39,1
1022,508,0,495,39,1
1022,508,0,495,39,1
1022,508,0,495,39,1
1022,508,0,495,39,1
1022,510,0,489,39,1
1022,510,0,489,39,1
1022,510,0,489,39,1
1022,510,0,489,39,1
1022,510,0,489,39,1
1022,510,0,489,39,1
1022,511,0,497,39,1
1022,511,0,497,39,1
1022,511,0,497,39,1
1022,511,0,497,39,1
1022,511,0,497,39,1
1022,511,0,497,39,1
1022,511,0,497,39,1
1022,511,0,492,39,1
1022,511,0,492,39,1
1022,511,0,492,39,1
1022,511,0,492,39,1
1022,511,0,492,39,1
1022,511,0,492,39,1
1022,511,0,492,39,1
1022,513,0,486,39,1
1022,513,0,486,39,1
1022,513,0,486,39,1
1022,513,0,486,39,1
1022,513,0,486,39,1
1022,513,0,486,39,1
1022,510,0,479,39,1
1022,510,0,479,39,1
1022,510,0,479,39,1
1022,510,0,479,39,1
1022,515,0,486,39,1
1022,515,0,486,39,1
1022,515,0,486,39,1
1022,515,0,486,39,1
1022,515,0,486,39,1
1022,515,0,486,39,1
1022,509,0,500,39,1
1022,509,0,500,39,1
1022,509,0,500,39,1
1022,509,0,500,39,1
1022,509,0,500,39,1
1022,509,0,500,39,1
1022,509,0,500,39,1
1022,509,0,500,39,1
1022,509,0,500,39,1
1022,509,0,500,39,1
1022,509,0,500,39,1
1022,510,0,500,39,1
1022,510,0,500,39,1
1022,510,0,500,39,1
1022,513,0,501,39,1
1022,513,0,501,39,1
1022,513,0,501,39,1
1022,513,0,501,39,1
1022,512,0,505,39,1
1022,512,0,505,39,1
1022,512,0,505,39,1
1022,512,0,505,39,1
1022,512,0,505,39,1
1022,512,0,505,39,1
1022,512,0,505,39,1
1022,509,0,481,39,1
1022,509,0,481,39,1
1022,509,0,481,39,1
1022,509,0,481,39,1
1022,509,0,481,39,1
1022,509,0,481,39,1
1022,513,0,496,39,1
1022,513,0,496,39,1
1022,513,0,496,39,1
1022,513,0,496,39,1
1022,513,0,496,39,1
1022,513,0,496,39,1
1022,511,0,494,39,1
1022,511,0,494,39,1
1022,511,0,494,39,1
1022,511,0,494,39,1
1022,511,0,494,39,1
1022,511,0,494,39,1
1022,512,0,499,39,1
1022,512,0,499,39,1
1022,512,0,499,39,1
1022,512,0,499,39,1
1022,512,0,499,39,1
1022,514,0,481,39,1
1022,514,0,481,39,1
1022,514,0,481,39,1
1022,514,0,481,39,1
1022,514,0,481,39,1
1022,514,0,481,39,1
1022,512,0,489,39,1
1022,512,0,489,39,1
1022,512,0,489,39,1
1022,512,0,489,39,1
1022,512,0,489,39,1
1022,512,0,489,39,1
1022,512,0,489,39,1
1022,512,0,489,39,1
1022,512,0,483,39,1
1022,512,0,483,39,1
1022,512,0,483,39,1
1022,512,0,483,39,1
1022,513,0,500,39,1
1022,513,0,500,39,1
1022,513,0,500,39,1
1022,513,0,500,39,1
1022,513,0,500,39,1
1022,513,0,500,39,1
1022,513,0,500,39,1
1022,516,0,491,39,1
1022,516,0,491,39,1
1022,516,0,491,39,1
1022,516,0,491,39,1
1022,516,0,491,39,1
1022,514,0,495,39,1
1022,514,0,495,39,1
1022,514,0,495,39,1
1022,514,0,495,39,1
1022,514,0,495,39,1
1022,514,0,495,39,1
1022,515,0,501,39,1
1022,515,0,501,39,1
1022,515,0,501,39,1
1022,515,0,501,39,1
1022,515,0,501,39,1
1022,515,0,501,39,1
1022,513,0,490,39,1
1022,513,0,490,39,1
1022,513,0,490,39,1
1022,513,0,490,39,1
1022,513,0,490,39,1
1022,513,0,490,39,1
1022,512,0,488,39,1
1022,512,0,488,39,1
1022,512,0,488,39,1
1022,512,0,488,39,1
1022,512,0,488,39,1
1022,512,0,488,39,1
1022,512,0,494,39,1
1022,512,0,494,39,1
1022,512,0,494,39,1
1022,512,0,494,39,1
1022,512,0,494,39,1
1022,512,0,494,39,1
1022,514,0,496,39,1
1022,514,0,496,39,1
1022,514,0,496,39,1
1022,514,0,496,39,1
1022,514,0,496,39,1
1022,514,0,496,39,1
1022,514,0,496,39,1
1022,514,0,494,39,1
1022,514,0,494,39,1
1022,514,0,494,39,1
1022,514,0,494,39,1
1022,514,0,494,39,1
1022,513,0,484,39,1
1022,513,0,484,39,1
1022,513,0,484,39,1
1022,513,0,484,39,1
1022,513,0,484,39,1
1022,513,0,484,39,1
1022,511,0,493,39,1
1022,511,0,493,39,1
1022,511,0,493,39,1
1022,511,0,493,39,1
1022,511,0,493,39,1
1022,511,0,493,39,1
1022,513,0,495,39,1
1022,513,0,495,39,1
1022,513,0,495,39,1
1022,513,0,495,39,1
1022,513,0,495,39,1
1022,513,0,495,39,1
1022,513,0,495,39,1
1022,513,0,495,39,1
1022,511,0,488,39,1
1022,511,0,488,39,1
1022,511,0,488,39,1
1022,511,0,488,39,1
1022,511,0,488,39,1
1022,511,0,488,39,1
1022,510,0,499,39,1
1022,510,0,499,39,1
1022,510,0,499,39,1
1022,510,0,499,39,1
1022,510,0,499,39,1
1022,511,0,502,39,1
1022,511,0,502,39,1
1022,511,0,502,39,1
1022,511,0,502,39,1
1022,511,0,502,39,1
1022,513,0,492,39,1
1022,513,0,492,39,1
1022,513,0,492,39,1
1022,513,0,492,39,1
1022,513,0,492,39,1
1022,513,0,492,39,1
1022,512,0,483,39,1
1022,512,0,483,39,1
1022,512,0,483,39,1
1022,512,0,483,39,1
1022,512,0,483,39,1
1022,512,0,483,39,1
1022,512,0,483,39,1
1022,514,0,493,39,1
1022,514,0,493,39,1
1022,514,0,493,39,1
1022,514,0,493,39,1
1022,514,0,493,39,1
1022,514,0,493,39,1
1022,514,0,482,39,1
1022,514,0,482,39,1
1022,514,0,482,39,1
1022,514,0,482,39,1
1022,514,0,482,39,1
1022,514,0,482,39,1
1022,511,0,498,39,1
1022,511,0,498,39,1
1022,511,0,498,39,1
1022,511,0,498,39,1
1022,511,0,498,39,1
1022,509,0,479,39,1
1022,509,0,479,39,1
1022,509,0,479,39,1
1022,509,0,479,39,1
1022,509,0,479,39,1
1022,509,0,479,39,1
1022,509,0,479,39,1
1022,512,0,495,39,1
1022,512,0,495,39,1
1022,512,0,495,39,1
1022,512,0,495,39,1
1022,512,0,495,39,1
1022,512,0,495,39,1
1022,512,0,495,39,1
1022,512,0,489,39,1
1022,512,0,489,39,1
1022,512,0,489,39,1
1022,512,0,489,39,1
1022,512,0,489,39,1
1022,512,0,489,39,1
1022,512,0,489,39,1
1022,513,0,502,39,1
1022,513,0,502,39,1
1022,513,0,502,39,1
1022,513,0,502,39,1
1022,511,0,496,39,1
1022,511,0,496,39,1
1022,511,0,496,39,1
1022,511,0,496,39,1
1022,511,0,496,39,1
1022,512,0,489,39,1
1022,512,0,489,39,1
1022,512,0,489,39,1
1022,512,0,489,39,1
1022,512,0,489,39,1
1022,512,0,489,39,1
1022,513,0,488,39,1
1022,513,0,488,39,1
1022,513,0,488,39,1
1022,513,0,488,39,1
1022,513,0,488,39,1
1022,512,0,488,39,1
1022,512,0,488,39,1
1022,512,0,488,39,1
1022,512,0,488,39,1
1022,512,0,488,39,1
1022,512,0,488,39,1
1022,512,0,488,39,1
1022,512,0,488,39,1
1022,512,0,488,39,1
1022,513,0,490,39,1
1022,513,0,490,39,1
1022,513,0,490,39,1
1022,513,0,490,39,1
1022,513,0,490,39,1
1022,511,0,485,39,1
1022,511,0,485,39,1
1022,511,0,485,39,1
1022,511,0,485,39,1
1022,511,0,485,39,1
1022,509,0,496,39,1
1022,509,0,496,39,1
1022,509,0,496,39,1
1022,509,0,496,39,1
1022,509,0,496,39,1
1022,509,0,496,39,1
1022,513,0,496,39,1
1022,513,0,496,39,1
1022,513,0,496,39,1
1022,513,0,496,39,1
1022,513,0,496,39,1
1022,513,0,496,39,1
1022,513,0,496,39,1
1022,510,0,488,39,1
1022,510,0,488,39,1
1022,510,0,488,39,1
1022,510,0,488,39,1
1022,510,0,488,39,1
1022,510,0,498,39,1
1022,510,0,498,39,1
1022,510,0,498,39,1
1022,510,0,498,39,1
1022,510,0,498,39,1
1022,510,0,498,39,1
1022,512,0,492,39,1
1022,512,0,492,39,1
1022,512,0,492,39,1
1022,512,0,492,39,1
1022,512,0,492,39,1
1022,512,0,492,39,1
1022,515,0,493,39,1
1022,515,0,493,39,1
1022,515,0,493,39,1
1022,515,0,493,39,1
1022,515,0,493,39,1
1022,515,0,493,39,1
1022,514,0,490,39,1
1022,514,0,490,39,1
1022,514,0,490,39,1
1022,514,0,490,39,1
1022,514,0,490,39,1
1022,514,0,490,39,1
1022,509,0,496,39,1
1022,509,0,496,39,1
1022,509,0,496,39,1
1022,509,0,496,39,1
1022,509,0,496,39,1
1022,509,0,496,39,1
1022,510,0,490,39,1
1022,510,0,490,39,1
1022,510,0,490,39,1
1022,510,0,490,39,1
1022,510,0,490,39,1
1022,510,0,490,39,1
1022,511,0,490,39,1
1022,511,0,490,39,1
1022,511,0,490,39,1
1022,511,0,490,39,1
1022,511,0,490,39,1
1022,512,0,494,39,1
1022,512,0,494,39,1
1022,512,0,494,39,1
1022,512,0,494,39,1
1022,512,0,494,39,1
1022,512,0,494,39,1
1022,512,0,494,39,1
1022,512,0,498,39,1
1022,512,0,498,39,1
1022,512,0,498,39,1
1022,512,0,498,39,1
1022,512,0,498,39,1
1022,512,0,498,39,1
1022,512,0,485,39,1
1022,512,0,485,39,1
1022,512,0,485,39,1
1022,512,0,485,39,1
1022,512,0,485,39,1
1022,512,0,485,39,1
1022,511,0,488,39,1
1022,511,0,488,39,1
1022,511,0,488,39,1
1022,511,0,488,39,1
1022,511,0,488,39,1
1022,511,0,488,39,1
1022,511,0,478,39,1
1022,511,0,478,39,1
1022,511,0,478,39,1
1022,511,0,478,39,1
1022,511,0,478,39,1
1022,511,0,478,39,1
1022,513,0,491,39,1
1022,513,0,491,39,1
1022,513,0,491,39,1
1022,513,0,491,39,1
1022,513,0,491,39,1
1022,513,0,509,39,1
1022,513,0,509,39,1
1022,513,0,509,39,1
1022,513,0,509,39,1
1022,513,0,509,39,1
1022,513,0,509,39,1
1022,513,0,509,39,1
1022,510,0,489,39,1
1022,510,0,489,39,1
1022,510,0,489,39,1
1022,510,0,489,39,1
1022,510,0,489,39,1
1022,510,0,489,39,1
1022,512,0,496,39,1
1022,512,0,496,39,1
1022,512,0,496,39,1
1022,512,0,496,39,1
1022,512,0,496,39,1
1022,512,0,496,39,1
1022,512,0,496,39,1
1022,513,0,491,39,1
1022,513,0,491,39,1
1022,513,0,491,39,1
1022,513,0,491,39,1
1022,513,0,491,39,1
1022,513,0,491,39,1
1022,513,0,491,39,1
1022,509,0,487,39,1
1022,509,0,487,39,1
1022,509,0,487,39,1
1022,509,0,487,39,1
1022,511,0,484,39,1
1022,511,0,484,39,1
1022,511,0,484,39,1
1022,511,0,484,39,1
1022,511,0,484,39,1
1022,511,0,495,39,1
1022,511,0,495,39,1
1022,511,0,495,39,1
1022,511,0,495,39,1
1022,511,0,495,39,1
1022,511,0,495,39,1
1022,511,0,495,39,1
1022,511,0,495,39,1
1022,511,0,495,39,1
1022,512,0,494,39,1
1022,512,0,494,39,1
1022,512,0,494,39,1
1022,512,0,494,39,1
1022,515,0,496,39,1
1022,515,0,496,39,1
1022,515,0,496,39,1
1022,515,0,496,39,1
1022,515,0,496,39,1
1022,515,0,496,39,1
1022,513,0,490,39,1
1022,513,0,490,39,1
1022,513,0,490,39,1
1022,513,0,490,39,1
1022,513,0,490,39,1
1022,513,0,490,39,1
1022,514,0,499,39,1
1022,514,0,499,39,1
1022,514,0,499,39,1
1022,514,0,499,39,1
1022,514,0,499,39,1
1022,514,0,499,39,1
1022,515,0,486,39,1
1022,515,0,486,39,1
1022,515,0,486,39,1
1022,515,0,486,39,1
1022,515,0,486,39,1
1022,514,0,492,39,1
1022,514,0,492,39,1
1022,514,0,492,39,1
1022,514,0,492,39,1
1022,514,0,492,39,1
1022,514,0,492,39,1
1022,514,0,492,39,1
1022,514,0,492,39,1
1022,514,0,492,39,1
1022,514,0,492,39,1
1022,513,0,494,39,1
1022,513,0,494,39,1
1022,513,0,494,39,1
1022,512,0,484,39,1
1022,512,0,484,39,1
1022,512,0,484,39,1
1022,512,0,484,39,1
1022,512,0,484,39,1
1022,512,0,484,39,1
1022,514,0,493,39,1
1022,514,0,493,39,1
1022,514,0,493,39,1
1022,514,0,493,39,1
1022,514,0,493,39,1
1022,514,0,493,39,1
1022,512,0,486,39,1
1022,512,0,486,39,1
1022,512,0,486,39,1
1022,512,0,486,39,1
1022,512,0,486,39,1
1022,512,0,486,39,1
1022,511,0,489,39,1
1022,511,0,489,39,1
1022,511,0,489,39,1
1022,511,0,489,39,1
1022,511,0,489,39,1
1022,511,0,489,39,1
1022,515,0,498,39,1
1022,515,0,498,39,1
1022,515,0,498,39,1
1022,515,0,498,39,1
1022,515,0,498,39,1
1022,515,0,498,39,1
1022,511,0,495,39,1
1022,511,0,495,39,1
1022,511,0,495,39,1
1022,511,0,495,39,1
1022,511,0,495,39,1
1022,510,0,489,39,1
1022,510,0,489,39,1
1022,510,0,489,39,1
1022,510,0,489,39,1
1022,510,0,489,39,1
1022,510,0,489,39,1
1022,510,0,489,39,1
1022,509,0,494,39,1
1022,509,0,494,39,1
1022,509,0,494,39,1
1022,509,0,494,39,1
1022,509,0,494,39,1
1022,509,0,494,39,1
1022,513,0,487,39,1
1022,513,0,487,39,1
1022,513,0,487,39,1
1022,513,0,487,39,1
1022,513,0,487,39,1
1022,513,0,487,39,1
1022,510,0,490,39,1
1022,510,0,490,39,1
1022,510,0,490,39,1
1022,510,0,490,39,1
1022,510,0,490,39,1
1022,510,0,490,39,1
1022,510,0,490,39,1
1022,512,0,492,39,1
1022,512,0,492,39,1
1022,512,0,492,39,1
1022,512,0,492,39,1
1022,512,0,492,39,1
1022,509,0,493,39,1
1022,509,0,493,39,1
1022,509,0,493,39,1
1022,509,0,493,39,1
1022,509,0,493,39,1
1022,509,0,493,39,1
1022,515,0,489,39,1
1022,515,0,489,39,1
1022,515,0,489,39,1
1022,515,0,489,39,1
1022,515,0,489,39,1
1022,515,0,489,39,1
1022,515,0,492,39,1
1022,515,0,492,39,1
1022,515,0,492,39,1
1022,515,0,492,39,1
1022,515,0,492,39,1
1022,515,0,492,39,1
1022,509,0,486,39,1
1022,509,0,486,39,1
1022,509,0,486,39,1
1022,509,0,486,39,1
1022,509,0,486,39,1
1022,509,0,486,39,1
1022,512,0,487,39,1
1022,512,0,487,39,1
1022,512,0,487,39,1
1022,512,0,487,39,1
1022,512,0,487,39,1
1022,512,0,487,39,1
1022,510,0,492,39,1
1022,510,0,492,39,1
1022,510,0,492,39,1
1022,510,0,492,39,1
1022,510,0,492,39,1
1022,510,0,492,39,1
1022,510,0,485,39,1
1022,510,0,485,39,1
1022,510,0,485,39,1
1022,510,0,485,39,1
1022,510,0,485,39,1
1022,510,0,485,39,1
1022,514,0,496,39,1
1022,514,0,496,39,1
1022,514,0,496,39,1
1022,514,0,496,39,1
1022,514,0,496,39,1
1022,514,0,496,39,1
1022,514,0,487,39,1
1022,514,0,487,39,1
1022,514,0,487,39,1
1022,514,0,487,39,1
1022,514,0,487,39,1
1022,514,0,487,39,1
1022,512,0,493,39,1
1022,512,0,493,39,1
1022,512,0,493,39,1
1022,512,0,493,39,1
1022,512,0,493,39,1
1022,512,0,493,39,1
1022,512,0,493,39,1
1022,509,0,499,39,1
1022,509,0,499,39,1
1022,509,0,499,39,1
1022,509,0,499,39,1
1022,509,0,499,39,1
1022,511,0,494,39,1
1022,511,0,494,39,1
1022,511,0,494,39,1
1022,511,0,494,39,1
1022,511,0,494,39,1
1022,511,0,494,39,1
1022,512,0,499,39,1
1022,512,0,499,39,1
1022,512,0,499,39,1
1022,512,0,499,39,1
1022,512,0,499,39,1
1022,512,0,499,39,1
1022,512,0,491,39,1
1022,512,0,491,39,1
1022,512,0,491,39,1
1022,512,0,491,39,1
1022,512,0,491,39,1
1022,512,0,491,39,1
1022,513,0,493,39,1
1022,513,0,493,39,1
1022,513,0,493,39,1
1022,513,0,493,39,1
1022,513,0,493,39,1
1022,513,0,493,39,1
1022,512,0,491,39,1
1022,512,0,491,39,1
1022,512,0,491,39,1
1022,512,0,491,39,1
1022,512,0,491,39,1
1022,512,0,491,39,1
1022,509,0,484,39,1
1022,509,0,484,39,1
1022,509,0,484,39,1
1022,509,0,484,39,1
1022,509,0,484,39,1
1022,509,0,484,39,1
1022,509,0,484,39,1
1022,513,0,489,39,1
1022,513,0,489,39,1
1022,513,0,489,39,1
1022,513,0,489,39,1
1022,513,0,489,39,1
1022,515,0,500,39,1
1022,515,0,500,39,1
1022,515,0,500,39,1
1022,515,0,500,39,1
1022,515,0,500,39,1
1022,515,0,500,39,1
1022,511,0,487,39,1
1022,511,0,487,39,1
1022,511,0,487,39,1
1022,511,0,487,39,1
1022,511,0,487,39,1
1022,511,0,487,39,1
1022,511,0,487,39,1
1022,513,0,502,39,1
1022,513,0,502,39,1
1022,513,0,502,39,1
1022,513,0,502,39,1
1022,513,0,502,39,1
1022,513,0,502,39,1
1022,513,0,502,39,1
1022,513,0,502,39,1
1022,513,0,502,39,1
1022,512,0,482,39,1
1022,512,0,482,39,1
1022,512,0,482,39,1
1022,509,0,499,39,1
1022,509,0,499,39,1
1022,509,0,499,39,1
1022,509,0,499,39,1
1022,509,0,499,39,1
1022,509,0,499,39,1
1022,509,0,499,39,1
1022,509,0,499,39,1
1022,512,0,496,39,1
1022,512,0,496,39,1
1022,512,0,496,39,1
1022,511,0,495,39,1
1022,511,0,495,39,1
1022,511,0,495,39,1
1022,511,0,495,39,1
1022,511,0,495,39,1
1022,511,0,495,39,1
1022,511,0,495,39,1
1022,511,0,495,39,1
1022,511,0,492,39,1
1022,511,0,492,39,1
1022,511,0,492,39,1
1022,511,0,492,39,1
1022,511,0,492,39,1
1022,511,0,497,39,1
1022,511,0,497,39,1
1022,511,0,497,39,1
1022,511,0,497,39,1
1022,511,0,497,39,1
1022,511,0,497,39,1
1022,511,0,497,39,1
1022,515,0,493,39,1
1022,515,0,493,39,1
1022,515,0,493,39,1
1022,515,0,493,39,1
1022,515,0,493,39,1
1022,515,0,493,39,1
1022,515,0,493,39,1
1022,515,0,493,39,1
1022,514,0,496,39,1
1022,514,0,496,39,1
1022,514,0,496,39,1
1022,514,0,496,39,1
1022,514,0,496,39,1
1022,514,0,489,39,1
1022,514,0,489,39,1
1022,514,0,489,39,1
1022,514,0,489,39,1
1022,513,0,483,39,1
1022,513,0,483,39,1
1022,513,0,483,39,1
1022,513,0,483,39,1
1022,513,0,483,39,1
1022,517,0,496,39,1
1022,517,0,496,39,1
1022,517,0,496,39,1
1022,517,0,496,39,1
1022,517,0,496,39,1
1022,517,0,496,39,1
1022,512,0,496,39,1
1022,512,0,496,39,1
1022,512,0,496,39,1
1022,512,0,496,39,1
1022,512,0,496,39,1
1022,512,0,496,39,1
1022,510,0,502,39,1
1022,510,0,502,39,1
1022,510,0,502,39,1
1022,510,0,502,39,1
1022,510,0,502,39,1
1022,510,0,502,39,1
1022,515,0,492,39,1
1022,515,0,492,39,1
1022,515,0,492,39,1
1022,515,0,492,39,1
1022,515,0,492,39,1
1022,511,0,494,39,1
1022,511,0,494,39,1
1022,511,0,494,39,1
1022,511,0,494,39,1
1022,511,0,494,39,1
1022,511,0,494,39,1
1022,511,0,494,39,1
1022,512,0,487,39,1
1022,512,0,487,39,1
1022,512,0,487,39,1
1022,512,0,487,39,1
1022,512,0,487,39,1
1022,512,0,487,39,1
1022,513,0,496,39,1
1022,513,0,496,39,1
1022,513,0,496,39,1
1022,513,0,496,39,1
1022,513,0,496,39,1
1022,513,0,485,39,1
1022,513,0,485,39,1
1022,513,0,485,39,1
1022,513,0,485,39,1
1022,513,0,485,39,1
1022,513,0,485,39,1
1022,513,0,485,39,1
1022,509,0,489,39,1
1022,509,0,489,39,1
1022,509,0,489,39,1
1022,509,0,489,39,1
1022,509,0,489,39,1
1022,509,0,489,39,1
1022,509,0,489,39,1
1022,513,0,486,39,1
1022,513,0,486,39,1
1022,513,0,486,39,1
1022,513,0,486,39,1
1022,513,0,486,39,1
1022,513,0,491,39,1
1022,513,0,491,39,1
1022,513,0,491,39,1
1022,513,0,491,39,1
1022,513,0,491,39,1
1022,513,0,491,39,1
1022,513,0,491,39,1
1022,513,0,491,39,1
1022,510,0,486,39,1
1022,510,0,486,39,1
1022,510,0,486,39,1
1022,511,0,483,39,1
1022,511,0,483,39,1
1022,511,0,483,39,1
1022,511,0,483,39,1
1022,511,0,483,39,1
1022,511,0,483,39,1
1022,511,0,483,39,1
1022,510,0,503,39,1
1022,510,0,503,39,1
1022,510,0,503,39,1
1022,510,0,503,39,1
1022,510,0,503,39,1
1022,510,0,503,39,1
1022,510,0,503,39,1
1022,509,0,507,39,1
1022,509,0,507,39,1
1022,509,0,507,39,1
1022,509,0,507,39,1
1022,509,0,507,39,1
1022,513,0,491,39,1
1022,513,0,491,39,1
1022,513,0,491,39,1
1022,513,0,491,39,1
1022,513,0,491,39,1
1022,513,0,491,39,1
1022,512,0,495,39,1
1022,512,0,495,39,1
1022,512,0,495,39,1
1022,512,0,495,39,1
1022,512,0,495,39,1
1022,512,0,495,39,1
1022,512,0,495,39,1
1022,513,0,487,39,1
1022,513,0,487,39,1
1022,513,0,487,39,1
1022,513,0,487,39,1
1022,513,0,487,39,1
1022,513,0,487,39,1
1022,511,0,492,39,1
1022,511,0,492,39,1
1022,511,0,492,39,1
1022,511,0,492,39,1
1022,511,0,492,39,1
1022,511,0,492,39,1
1022,516,0,498,39,1
1022,516,0,498,39,1
1022,516,0,498,39,1
1022,516,0,498,39,1
1022,516,0,498,39,1
1022,516,0,498,39,1
1022,514,0,495,39,1
1022,514,0,495,39,1
1022,514,0,495,39,1
1022,514,0,495,39,1
1022,514,0,495,39,1
1022,514,0,495,39,1
1022,512,0,490,39,1
1022,512,0,490,39,1
1022,512,0,490,39,1
1022,512,0,490,39,1
1022,512,0,490,39,1
1022,512,0,492,39,1
1022,512,0,492,39,1
1022,512,0,492,39,1
1022,512,0,492,39,1
1022,512,0,492,39,1
1022,512,0,492,39,1
1022,514,0,480,39,1
1022,514,0,480,39,1
1022,514,0,480,39,1
1022,514,0,480,39,1
1022,514,0,480,39,1
1022,514,0,480,39,1
1022,514,0,480,39,1
1022,510,0,499,39,1
1022,510,0,499,39,1
1022,510,0,499,39,1
1022,510,0,499,39,1
1022,510,0,499,39,1
1022,510,0,499,39,1
1022,510,0,499,39,1
1022,511,0,502,39,1
1022,511,0,502,39,1
1022,511,0,502,39,1
1022,511,0,502,39,1
1022,511,0,502,39,1
1022,512,0,485,39,1
1022,512,0,485,39,1
1022,512,0,485,39,1
1022,512,0,485,39,1
1022,512,0,485,39,1
1022,512,0,485,39,1
1022,512,0,485,39,1
1022,510,0,486,39,1
1022,510,0,486,39,1
1022,510,0,486,39,1
1022,510,0,486,39,1
1022,510,0,486,39,1
1022,510,0,486,39,1
1022,512,0,492,39,1
1022,512,0,492,39,1
1022,512,0,492,39,1
1022,512,0,492,39,1
1022,514,0,477,39,1
1022,514,0,477,39,1
1022,514,0,477,39,1
1022,514,0,477,39,1
1022,514,0,477,39,1
1022,514,0,477,39,1
1022,514,0,477,39,1
1022,514,0,477,39,1
1022,514,0,494,39,1
1022,514,0,494,39,1
1022,514,0,494,39,1
1022,514,0,494,39,1
1022,514,0,494,39,1
1022,515,0,495,39,1
1022,515,0,495,39,1
1022,515,0,495,39,1
1022,515,0,495,39,1
1022,515,0,495,39,1
1022,515,0,495,39,1
1022,515,0,495,39,1
1022,511,0,491,39,1
1022,511,0,491,39,1
1022,511,0,491,39,1
1022,511,0,491,39,1
1022,513,0,487,39,1
1022,513,0,487,39,1
1022,513,0,487,39,1
1022,513,0,487,39,1
1022,513,0,487,39,1
1022,513,0,487,39,1
1022,513,0,494,39,1
1022,513,0,494,39,1
1022,513,0,494,39,1
1022,513,0,494,39,1
1022,513,0,494,39,1
1022,513,0,494,39,1
1022,513,0,483,39,1
1022,513,0,483,39,1
1022,513,0,483,39,1
1022,513,0,483,39,1
1022,513,0,483,39,1
1022,513,0,483,39,1
1022,513,0,483,39,1
1022,513,0,483,39,1
1022,513,0,483,39,1
1022,513,0,483,39,1
1022,516,0,493,39,1
1022,516,0,493,39,1
1022,516,0,493,39,1
1022,516,0,493,39,1
1022,513,0,489,39,1
1022,513,0,489,39,1
1022,513,0,489,39,1
1022,513,0,489,39,1
1022,513,0,494,39,1
1022,513,0,494,39,1
1022,513,0,494,39,1
1022,513,0,494,39,1
1022,513,0,494,39,1
1022,513,0,494,39,1
1022,513,0,489,39,1
1022,513,0,489,39,1
1022,513,0,489,39,1
1022,513,0,489,39,1
1022,513,0,489,39,1
1022,513,0,489,39,1
1022,513,0,489,39,1
1022,513,0,489,39,1
1022,515,0,493,39,1
1022,515,0,493,39,1
1022,515,0,493,39,1
1022,515,0,493,39,1
1022,512,0,490,39,1
1022,512,0,490,39,1
1022,512,0,490,39,1
1022,512,0,490,39,1
1022,512,0,490,39,1
1022,512,0,490,39,1
1022,512,0,497,39,1
1022,512,0,497,39,1
1022,512,0,497,39,1
1022,512,0,497,39,1
1022,512,0,497,39,1
1022,512,0,497,39,1
1022,512,0,497,39,1
1022,513,0,485,39,1
1022,513,0,485,39,1
1022,513,0,485,39,1
1022,513,0,485,39,1
1022,513,0,485,39,1
1022,513,0,490,39,1
1022,513,0,490,39,1
1022,513,0,490,39,1
1022,513,0,490,39,1
1022,513,0,490,39,1
1022,511,0,496,39,1
1022,511,0,496,39,1
1022,511,0,496,39,1
1022,511,0,496,39,1
1022,511,0,496,39,1
1022,511,0,496,39,1
1022,511,0,496,39,1
1022,513,0,492,39,1
1022,513,0,492,39,1
1022,513,0,492,39,1
1022,513,0,492,39,1
1022,513,0,492,39,1
1022,513,0,492,39,1
1022,514,0,486,39,1
1022,514,0,486,39,1
1022,514,0,486,39,1
1022,514,0,486,39,1
1022,514,0,486,39,1
1022,515,0,494,39,1
1022,515,0,494,39,1
1022,515,0,494,39,1
1022,515,0,494,39,1
1022,515,0,494,39,1
1022,515,0,494,39,1
1022,515,0,494,39,1
1022,515,0,494,39,1
1022,513,0,496,39,1
1022,513,0,496,39,1
1022,513,0,496,39,1
1022,513,0,496,39,1
1022,513,0,496,39,1
1022,511,0,490,39,1
1022,511,0,490,39,1
1022,511,0,490,39,1
1022,511,0,490,39,1
1022,511,0,490,39,1
1022,511,0,490,39,1
1022,511,0,490,39,1
1022,511,0,490,39,1
1022,514,0,501,39,1
1022,514,0,501,39,1
1022,514,0,501,39,1
1022,514,0,501,39,1
1022,515,0,490,39,1
1022,515,0,490,39,1
1022,515,0,490,39,1
1022,515,0,490,39,1
1022,515,0,490,39,1
1022,515,0,490,39,1
1022,512,0,498,39,1
1022,512,0,498,39,1
1022,512,0,498,39,1
1022,512,0,498,39,1
1022,512,0,498,39,1
1022,512,0,498,39,1
1022,513,0,499,39,1
1022,513,0,499,39,1
1022,513,0,499,39,1
1022,513,0,499,39,1
1022,513,0,499,39,1
1022,513,0,499,39,1
1022,515,0,501,39,1
1022,515,0,501,39,1
1022,515,0,501,39,1
1022,515,0,501,39,1
1022,515,0,501,39,1
1022,515,0,501,39,1
1022,512,0,488,39,1
1022,512,0,488,39,1
1022,512,0,488,39,1
1022,512,0,488,39,1
1022,512,0,488,39,1
1022,511,0,500,39,1
1022,511,0,500,39,1
1022,511,0,500,39,1
1022,511,0,500,39,1
1022,511,0,500,39,1
1022,511,0,500,39,1
1022,511,0,500,39,1
1022,511,0,491,39,1
1022,511,0,491,39,1
1022,511,0,491,39,1
1022,511,0,491,39,1
1022,511,0,491,39,1
1022,511,0,491,39,1
1022,511,0,494,39,1
1022,511,0,494,39,1
1022,511,0,494,39,1
1022,511,0,494,39,1
1022,511,0,494,39,1
1022,511,0,494,39,1
1022,513,0,493,39,1
1022,513,0,493,39,1
1022,513,0,493,39,1
1022,513,0,493,39,1
1022,513,0,493,39,1
1022,514,0,496,39,1
1022,514,0,496,39,1
1022,514,0,496,39,1
1022,514,0,496,39,1
1022,514,0,496,39,1
1022,514,0,496,39,1
1022,514,0,496,39,1
1022,513,0,492,39,1
1022,513,0,492,39,1
1022,513,0,492,39,1
1022,513,0,492,39,1
1022,513,0,492,39,1
1022,513,0,492,39,1
1022,511,0,495,39,1
1022,511,0,495,39,1
1022,511,0,495,39,1
1022,511,0,495,39,1
1022,511,0,495,39,1
1022,511,0,495,39,1
1022,511,0,489,39,1
1022,511,0,489,39,1
1022,511,0,489,39,1
1022,511,0,489,39,1
1022,511,0,489,39,1
1022,511,0,489,39,1
1022,513,0,488,39,1
1022,513,0,488,39,1
1022,513,0,488,39,1
1022,513,0,488,39,1
1022,513,0,488,39,1
1022,513,0,488,39,1
1022,513,0,488,39,1
1022,513,0,488,39,1
1022,511,0,493,39,1
1022,511,0,493,39,1
1022,511,0,493,39,1
1022,511,0,493,39,1
1022,511,0,493,39,1
1022,511,0,493,39,1
1022,511,0,493,39,1
1022,511,0,493,39,1
1022,511,0,493,39,1
1022,511,0,493,39,1
1022,511,0,493,39,1
1022,513,0,497,39,1
1022,513,0,497,39,1
1022,513,0,497,39,1
1022,513,0,497,39,1
1022,513,0,497,39,1
1022,514,0,506,39,1
1022,514,0,506,39,1
1022,514,0,506,39,1
1022,514,0,506,39,1
1022,514,0,506,39,1
1022,514,0,506,39,1
1022,514,0,506,39,1
1022,513,0,484,39,1
1022,513,0,484,39,1
1022,513,0,484,39,1
1022,513,0,484,39,1
1022,513,0,484,39,1
1022,513,0,484,39,1
1022,512,0,494,39,1
1022,512,0,494,39,1
1022,512,0,494,39,1
1022,512,0,494,39,1
1022,512,0,494,39,1
1022,512,0,494,39,1
1022,511,0,488,39,1
1022,511,0,488,39,1
1022,511,0,488,39,1
1022,511,0,488,39,1
1022,511,0,488,39,1
1022,511,0,488,39,1
1022,512,0,489,39,1
1022,512,0,489,39,1
1022,512,0,489,39,1
1022,512,0,489,39,1
1022,512,0,489,39,1
1022,512,0,489,39,1
1022,514,0,501,39,1
1022,514,0,501,39,1
1022,514,0,501,39,1
1022,514,0,501,39,1
1022,514,0,501,39,1
1022,514,0,501,39,1
1022,512,0,488,39,1
1022,512,0,488,39,1
1022,512,0,488,39,1
1022,512,0,488,39,1
1022,512,0,488,39,1
1022,512,0,488,39,1
1022,512,0,499,39,1
1022,512,0,499,39,1
1022,512,0,499,39,1
1022,512,0,499,39,1
1022,512,0,499,39,1
1022,513,0,493,39,1
1022,513,0,493,39,1
1022,513,0,493,39,1
1022,513,0,493,39,1
1022,513,0,493,39,1
1022,513,0,493,39,1
1022,515,0,494,39,1
1022,515,0,494,39,1
1022,515,0,494,39,1
1022,515,0,494,39,1
1022,515,0,494,39,1
1022,515,0,494,39,1
1022,515,0,494,39,1
1022,512,0,483,39,1
1022,512,0,483,39,1
1022,512,0,483,39,1
1022,512,0,483,39,1
1022,512,0,483,39,1
1022,511,0,489,39,1
1022,511,0,489,39,1
1022,511,0,489,39,1
1022,511,0,489,39,1
1022,511,0,489,39,1
1022,511,0,489,39,1
1022,510,0,496,39,1
1022,510,0,496,39,1
1022,510,0,496,39,1
1022,510,0,496,39,1
1022,510,0,496,39,1
1022,510,0,496,39,1
1022,510,0,496,39,1
1022,512,0,490,39,1
1022,512,0,490,39,1
1022,512,0,490,39,1
1022,512,0,490,39,1
1022,512,0,490,39,1
1022,512,0,491,39,1
1022,512,0,491,39,1
1022,512,0,491,39,1
1022,512,0,491,39,1
1022,512,0,491,39,1
1022,512,0,491,39,1
1022,512,0,491,39,1
1022,514,0,498,39,1
1022,514,0,498,39,1
1022,514,0,498,39,1
1022,514,0,498,39,1
1022,514,0,498,39,1
1022,514,0,498,39,1
1022,512,0,488,39,1
1022,512,0,488,39,1
1022,512,0,488,39,1
1022,512,0,488,39,1
1022,512,0,488,39,1
1022,512,0,502,39,1
1022,512,0,502,39,1
1022,512,0,502,39,1
1022,512,0,502,39,1
1022,512,0,502,39,1
1022,512,0,502,39,1
1022,514,0,502,39,1
1022,514,0,502,39,1
1022,514,0,502,39,1
1022,514,0,502,39,1
1022,514,0,502,39,1
1022,514,0,502,39,1
1022,512,0,488,39,1
1022,512,0,488,39,1
1022,512,0,488,39,1
1022,512,0,488,39,1
1022,512,0,488,39,1
1022,512,0,488,39,1
1022,511,0,497,39,1
1022,511,0,497,39,1
1022,511,0,497,39,1
1022,511,0,497,39,1
1022,511,0,497,39,1
1022,511,0,497,39,1
1022,511,0,497,39,1
1022,511,0,498,39,1
1022,511,0,498,39,1
1022,511,0,498,39,1
1022,511,0,498,39,1
1022,511,0,498,39,1
1022,511,0,498,39,1
1022,510,0,484,39,1
1022,510,0,484,39,1
1022,510,0,484,39,1
1022,510,0,484,39,1
1022,510,0,484,39,1
1022,513,0,500,39,1
1022,513,0,500,39,1
1022,513,0,500,39,1
1022,513,0,500,39,1
1022,513,0,500,39,1
1022,513,0,500,39,1
1022,513,0,500,39,1
1022,513,0,500,39,1
1022,515,0,487,39,1
1022,515,0,487,39,1
1022,515,0,487,39,1
1022,515,0,487,39,1
1022,515,0,487,39,1
1022,514,0,496,39,1
1022,514,0,496,39,1
1022,514,0,496,39,1
1022,514,0,496,39,1
1022,514,0,496,39,1
1022,512,0,495,39,1
1022,512,0,495,39,1
1022,512,0,495,39,1
1022,512,0,495,39,1
1022,512,0,495,39,1
1022,512,0,495,39,1
1022,512,0,495,39,1
1022,509,0,491,39,1
1022,509,0,491,39,1
1022,509,0,491,39,1
1022,509,0,491,39,1
1022,509,0,491,39,1
1022,509,0,491,39,1
1022,511,0,490,39,1
1022,511,0,490,39,1
1022,511,0,490,39,1
1022,511,0,490,39,1
1022,511,0,490,39,1
1022,511,0,490,39,1
1011,513,0,493,39,1
1011,513,0,493,39,1
1011,513,0,493,39,1
1011,513,0,493,39,1
1011,513,0,493,39,1
1011,513,0,493,39,1
1011,513,0,493,39,1
725,511,0,500,39,1
725,511,0,500,39,1
725,511,0,500,39,1
725,511,0,500,39,1
433,513,0,503,39,1
433,513,0,503,39,1
433,513,0,503,39,1
433,513,0,503,39,1
433,513,0,503,39,1
433,513,0,503,39,1
433,513,0,503,39,1
88,510,0,493,39,1
88,510,0,493,39,1
88,510,0,493,39,1
88,510,0,493,39,1
88,510,0,493,39,1
88,510,0,493,39,1
0,513,0,504,39,1
0,513,0,504,39,1
0,513,0,504,39,1
0,513,0,504,39,1
0,513,0,504,39,1
0,513,0,504,39,1
0,513,0,504,39,1
0,510,0,502,39,1
0,510,0,502,39,1
0,510,0,502,39,1
0,510,0,502,39,1
0,515,0,503,39,1
0,515,0,503,39,1
0,515,0,503,39,1
0,515,0,503,39,1
0,515,0,503,39,1
0,515,0,503,39,1
0,515,0,503,39,1
0,511,0,495,39,1
0,511,0,495,39,1
0,511,0,495,39,1
0,511,0,495,39,1
0,511,0,495,39,1
0,511,0,495,39,1
0,513,0,485,39,1
0,513,0,485,39,1
0,513,0,485,39,1
0,513,0,485,39,1
0,513,0,485,39,1
0,513,0,498,39,1
0,513,0,498,39,1
0,513,0,498,39,1
0,513,0,498,39,1
0,513,0,498,39,1
0,513,0,498,39,1
0,512,0,500,39,1
0,512,0,500,39,1
0,512,0,500,39,1
0,512,0,500,39,1
0,512,0,500,39,1
0,512,0,500,39,1
0,512,0,500,39,1
0,513,0,507,39,1
0,513,0,507,39,1
0,513,0,507,39,1
0,513,0,507,39,1
0,513,0,507,39,1
0,513,0,507,39,1
0,514,0,495,39,1
0,514,0,495,39,1
0,514,0,495,39,1
0,514,0,495,39,1
0,514,0,495,39,1
0,512,0,480,39,1
0,512,0,480,39,1
0,512,0,480,39,1
0,512,0,480,39,1
0,512,0,480,39,1
0,512,0,480,39,1
0,515,0,495,39,1
0,515,0,495,39,1
0,515,0,495,39,1
0,515,0,495,39,1
0,515,0,495,39,1
0,515,0,495,39,1
0,515,0,495,39,1
0,513,0,491,39,1
0,513,0,491,39,1
0,513,0,491,39,1
0,513,0,491,39,1
0,513,0,491,39,1
0,512,0,495,39,1
0,512,0,495,39,1
0,512,0,495,39,1
0,512,0,495,39,1
0,512,0,495,39,1
0,512,0,495,39,1
0,512,0,495,39,1
0,513,0,494,39,1
0,513,0,494,39,1
0,513,0,494,39,1
0,513,0,494,39,1
0,513,0,494,39,1
0,512,0,497,39,1
0,512,0,497,39,1
0,512,0,497,39,1
0,512,0,497,39,1
0,512,0,497,39,1
0,512,0,497,39,1
0,512,0,497,39,1
0,514,0,495,39,1
0,514,0,495,39,1
0,514,0,495,39,1
0,514,0,495,39,1
0,514,0,495,39,1
0,512,0,503,39,1
0,512,0,503,39,1
0,512,0,503,39,1
0,512,0,503,39,1
0,512,0,503,39,1
0,512,0,503,39,1
0,513,0,504,39,1
0,513,0,504,39,1
0,513,0,504,39,1
0,513,0,504,39,1
0,513,0,504,39,1
0,513,0,504,39,1
0,513,0,504,39,1
0,513,0,497,39,1
0,513,0,497,39,1
0,513,0,497,39,1
0,513,0,497,39,1
0,513,0,497,39,1
0,513,0,497,39,1
0,513,0,500,39,1
0,513,0,500,39,1
0,513,0,500,39,1
0,513,0,500,39,1
0,513,0,500,39,1
0,513,0,500,39,1
0,513,0,507,39,1
0,513,0,507,39,1
0,513,0,507,39,1
0,513,0,507,39,1
0,513,0,507,39,1
0,513,0,507,39,1
0,511,0,502,39,1
0,511,0,502,39,1
0,511,0,502,39,1
0,511,0,502,39,1
0,511,0,502,39,1
0,511,0,502,39,1
0,510,0,503,39,1
0,510,0,503,39,1
0,510,0,503,39,1
0,510,0,503,39,1
0,510,0,503,39,1
0,510,0,503,39,1
0,514,0,508,39,1
0,514,0,508,39,1
0,514,0,508,39,1
0,514,0,508,39,1
0,514,0,508,39,1
0,514,0,508,39,1
0,514,0,508,39,1
0,510,0,504,39,1
0,510,0,504,39,1
0,510,0,504,39,1
0,510,0,504,39,1
0,510,0,504,39,1
0,516,0,497,39,1
0,516,0,497,39,1
0,516,0,497,39,1
0,516,0,497,39,1
0,516,0,497,39,1
0,516,0,497,39,1
0,516,0,497,39,1
0,514,0,497,39,1
0,514,0,497,39,1
0,514,0,497,39,1
0,514,0,497,39,1
0,515,0,505,39,1
0,515,0,505,39,1
0,515,0,505,39,1
0,515,0,505,39,1
0,515,0,505,39,1
0,515,0,505,39,1
0,515,0,505,39,1
0,512,0,504,39,1
0,512,0,504,39,1
0,512,0,504,39,1
0,512,0,504,39,1
0,512,0,504,39,1
0,512,0,504,39,1
0,515,0,494,39,1
0,515,0,494,39,1
0,515,0,494,39,1
0,515,0,494,39,1
0,515,0,494,39,1
0,515,0,515,39,1
0,515,0,515,39,1
0,515,0,515,39,1
0,515,0,515,39,1
0,515,0,515,39,1
0,515,0,515,39,1
0,515,0,515,39,1
0,514,0,510,39,1
0,514,0,510,39,1
0,514,0,510,39,1
0,514,0,510,39,1
0,514,0,510,39,1
0,514,0,510,39,1
0,514,0,510,39,1
0,513,0,504,39,1
0,513,0,504,39,1
0,513,0,504,39,1
0,513,0,504,39,1
0,513,0,501,39,1
0,513,0,501,39,1
0,513,0,501,39,1
0,513,0,501,39,1
0,513,0,501,39,1
0,513,0,501,39,1
0,513,0,501,39,1
0,511,0,510,39,1
0,511,0,510,39,1
0,511,0,510,39,1
0,511,0,510,39,1
0,511,0,510,39,1
0,511,0,510,39,1
0,511,0,510,39,1
0,511,0,510,39,1
0,513,0,518,39,1
0,513,0,518,39,1
0,513,0,518,39,1
0,512,0,504,39,1
0,512,0,504,39,1
0,512,0,504,39,1
0,512,0,504,39,1
0,512,0,504,39,1
0,512,0,504,39,1
0,512,0,504,39,1
0,512,0,504,39,1
0,510,0,512,39,1
0,510,0,512,39,1
0,510,0,512,39,1
0,510,0,512,39,1
0,516,0,500,39,1
0,516,0,500,39,1
0,516,0,500,39,1
0,516,0,500,39,1
0,516,0,500,39,1
0,516,0,500,39,1
0,516,0,500,39,1
0,510,0,512,39,1
0,510,0,512,39,1
0,510,0,512,39,1
0,510,0,512,39,1
0,510,0,512,39,1
0,513,0,506,39,1
0,513,0,506,39,1
0,513,0,506,39,1
0,513,0,506,39,1
0,513,0,506,39,1
0,513,0,506,39,1
0,513,0,506,39,1
0,512,0,524,39,1
0,512,0,524,39,1
0,512,0,524,39,1
0,512,0,524,39,1
0,512,0,524,39,1
0,511,0,506,39,1
0,511,0,506,39,1
0,511,0,506,39,1
0,511,0,506,39,1
0,511,0,506,39,1
0,511,0,506,39,1
0,511,0,506,39,1
0,514,0,510,39,1
0,514,0,510,39,1
0,514,0,510,39,1
0,514,0,510,39,1
0,514,0,510,39,1
0,511,0,518,39,1
0,511,0,518,39,1
0,511,0,518,39,1
0,511,0,518,39,1
0,511,0,518,39,1
0,511,0,518,39,1
0,511,0,518,39,1
0,511,0,516,39,1
0,511,0,516,39,1
0,511,0,516,39,1
0,511,0,516,39,1
0,511,0,516,39,1
0,511,0,516,39,1
0,513,0,509,39,1
0,513,0,509,39,1
0,513,0,509,39,1
0,513,0,509,39,1
0,513,0,509,39,1
0,513,0,509,39,1
0,513,0,497,39,1
0,513,0,497,39,1
0,513,0,497,39,1
0,513,0,497,39,1
0,513,0,497,39,1
0,515,0,508,39,1
0,515,0,508,39,1
0,515,0,508,39,1
0,515,0,508,39,1
0,515,0,508,39,1
0,515,0,508,39,1
0,515,0,508,39,1
0,511,0,503,39,1
0,511,0,503,39,1
0,511,0,503,39,1
0,511,0,503,39,1
0,511,0,503,39,1
0,512,0,518,39,1
0,512,0,518,39,1
0,512,0,518,39,1
0,512,0,518,39,1
0,512,0,518,39,1
0,512,0,518,39,1
0,512,0,518,39,1
0,512,0,501,39,1
0,512,0,501,39,1
0,512,0,501,39,1
0,512,0,501,39,1
0,512,0,501,39,1
0,512,0,501,39,1
0,517,0,521,39,1
0,517,0,521,39,1
0,517,0,521,39,1
0,517,0,521,39,1
0,517,0,521,39,1
0,512,0,513,39,1
0,512,0,513,39,1
0,512,0,513,39,1
0,512,0,513,39,1
0,512,0,513,39,1
0,512,0,513,39,1
0,511,0,504,39,1
0,511,0,504,39,1
0,511,0,504,39,1
0,511,0,504,39,1
0,511,0,504,39,1
0,511,0,504,39,1
0,511,0,502,39,1
0,511,0,502,39,1
0,511,0,502,39,1
0,511,0,502,39,1
0,511,0,502,39,1
0,511,0,502,39,1
0,513,0,505,39,1
0,513,0,505,39,1
0,513,0,505,39,1
0,513,0,505,39,1
0,513,0,505,39,1
0,513,0,505,39,1
0,513,0,505,39,1
0,512,0,504,39,1
0,512,0,504,39,1
0,512,0,504,39,1
0,512,0,504,39,1
0,512,0,504,39,1
0,512,0,504,39,1
0,512,0,504,39,1
0,512,0,504,39,1
0,514,0,504,39,1
0,514,0,504,39,1
0,514,0,504,39,1
0,510,0,510,39,1
0,510,0,510,39,1
0,510,0,510,39,1
0,510,0,510,39,1
0,510,0,510,39,1
0,510,0,510,39,1
0,510,0,510,39,1
0,514,0,503,39,1
0,514,0,503,39,1
0,514,0,503,39,1
0,514,0,503,39,1
0,514,0,503,39,1
0,515,0,501,39,1
0,515,0,501,39,1
0,515,0,501,39,1
0,515,0,501,39,1
0,515,0,501,39,1
0,515,0,501,39,1
0,515,0,501,39,1
0,512,0,514,39,1
0,512,0,514,39,1
0,512,0,514,39,1
0,512,0,514,39,1
0,512,0,514,39,1
0,512,0,514,39,1
0,512,0,514,39,1
0,512,0,512,39,1
0,512,0,512,39,1
0,512,0,512,39,1
0,512,0,512,39,1
0,512,0,512,39,1
0,512,0,512,39,1
0,512,0,512,39,1
0,512,0,519,39,1
0,512,0,519,39,1
0,512,0,519,39,1
0,512,0,519,39,1
0,512,0,500,39,1
0,512,0,500,39,1
0,512,0,500,39,1
0,512,0,500,39,1
0,512,0,500,39,1
0,512,0,500,39,1
0,515,0,508,39,1
0,515,0,508,39,1
0,515,0,508,39,1
0,515,0,508,39,1
0,515,0,508,39,1
0,515,0,508,39,1
0,512,0,509,39,1
0,512,0,509,39,1
0,512,0,509,39,1
0,512,0,509,39,1
0,512,0,509,39,1
0,512,0,515,39,1
0,512,0,515,39,1
0,512,0,515,39,1
0,512,0,515,39,1
0,512,0,515,39,1
0,512,0,515,39,1
0,509,0,518,39,1
0,509,0,518,39,1
0,509,0,518,39,1
0,509,0,518,39,1
0,509,0,518,39,1
0,509,0,518,39,1
0,509,0,518,39,1
0,511,0,505,39,1
0,511,0,505,39,1
0,511,0,505,39,1
0,511,0,505,39,1
0,511,0,505,39,1
0,515,0,513,39,1
0,515,0,513,39,1
0,515,0,513,39,1
0,515,0,513,39,1
0,515,0,513,39,1
0,515,0,513,39,1
0,515,0,513,39,1
0,512,0,515,39,1
0,512,0,515,39,1
0,512,0,515,39,1
0,512,0,515,39,1
0,512,0,515,39,1
0,510,0,514,39,1
0,510,0,514,39,1
0,510,0,514,39,1
0,510,0,514,39,1
0,510,0,514,39,1
0,510,0,514,39,1
0,512,0,518,39,1
0,512,0,518,39,1
0,512,0,518,39,1
0,512,0,518,39,1
0,512,0,518,39,1
0,512,0,518,39,1
0,512,0,518,39,1
0,511,0,510,39,1
0,511,0,510,39,1
0,511,0,510,39,1
0,511,0,510,39,1
0,511,0,510,39,1
0,511,0,510,39,1
0,511,0,519,39,1
0,511,0,519,39,1
0,511,0,519,39,1
0,511,0,519,39,1
0,511,0,519,39,1
0,513,0,512,39,1
0,513,0,512,39,1
0,513,0,512,39,1
0,513,0,512,39,1
0,513,0,512,39,1
0,513,0,512,39,1
0,512,0,510,39,1
0,512,0,510,39,1
0,512,0,510,39,1
0,512,0,510,39,1
0,512,0,510,39,1
0,512,0,510,39,1
0,512,0,510,39,1
0,513,0,517,39,1
0,513,0,517,39,1
0,513,0,517,39,1
0,513,0,517,39,1
0,513,0,517,39,1
0,513,0,517,39,1
0,512,0,515,39,1
0,512,0,515,39,1
0,512,0,515,39,1
0,512,0,515,39,1
0,512,0,515,39,1
0,509,0,513,39,1
0,509,0,513,39,1
0,509,0,513,39,1
0,509,0,513,39,1
0,509,0,513,39,1
0,509,0,513,39,1
0,509,0,513,39,1
0,509,0,513,39,1
0,509,0,513,39,1
0,513,0,522,39,1
0,513,0,522,39,1
0,513,0,522,39,1
0,513,0,522,39,1
0,513,0,515,39,1
0,513,0,515,39,1
0,513,0,515,39,1
0,513,0,515,39,1
0,513,0,515,39,1
0,513,0,515,39,1
0,511,0,512,39,1
0,511,0,512,39,1
0,511,0,512,39,1
0,511,0,512,39,1
0,511,0,512,39,1
0,511,0,512,39,1
0,512,0,531,39,1
0,512,0,531,39,1
0,512,0,531,39,1
0,512,0,531,39,1
0,512,0,531,39,1
0,510,0,525,39,1
0,510,0,525,39,1
0,510,0,525,39,1
0,510,0,525,39,1
0,510,0,525,39,1
0,510,0,525,39,1
0,510,0,525,39,1
0,509,0,512,39,1
0,509,0,512,39,1
0,509,0,512,39,1
0,509,0,512,39,1
0,509,0,512,39,1
0,509,0,512,39,1
0,509,0,512,39,1
0,511,0,511,39,1
0,511,0,511,39,1
0,511,0,511,39,1
0,511,0,511,39,1
0,512,0,519,39,1
0,512,0,519,39,1
0,512,0,519,39,1
0,512,0,519,39,1
0,512,0,519,39,1
0,512,0,519,39,1
0,512,0,526,39,1
0,512,0,526,39,1
0,512,0,526,39,1
0,512,0,526,39,1
0,512,0,526,39,1
0,512,0,526,39,1
0,512,0,526,39,1
0,509,0,513,39,1
0,509,0,513,39,1
0,509,0,513,39,1
0,509,0,513,39,1
0,509,0,513,39,1
0,509,0,513,39,1
0,510,0,522,39,1
0,510,0,522,39,1
0,510,0,522,39,1
0,510,0,522,39,1
0,510,0,522,39,1
0,510,0,522,39,1
0,510,0,516,39,1
0,510,0,516,39,1
0,510,0,516,39,1
0,510,0,516,39,1
0,510,0,516,39,1
0,510,0,516,39,1
0,511,0,512,39,1
0,511,0,512,39,1
0,511,0,512,39,1
0,511,0,512,39,1
0,511,0,512,39,1
0,515,0,522,39,1
0,515,0,522,39,1
0,515,0,522,39,1
0,515,0,522,39,1
0,515,0,522,39,1
0,515,0,522,39,1
0,515,0,522,39,1
0,515,0,522,39,1
0,513,0,542,39,1
0,513,0,542,39,1
0,513,0,542,39,1
0,513,0,542,39,1
0,513,0,542,39,1
0,513,0,542,39,1
0,513,0,542,39,1
0,513,0,542,39,1
0,513,0,519,39,1
0,513,0,519,39,1
0,513,0,519,39,1
0,511,0,524,39,1
0,511,0,524,39,1
0,511,0,524,39,1
0,511,0,524,39,1
0,511,0,524,39,1
0,513,0,509,39,1
0,513,0,509,39,1
0,513,0,509,39,1
0,513,0,509,39,1
0,513,0,509,39,1
0,513,0,509,39,1
0,513,0,509,39,1
0,512,0,527,39,1
0,512,0,527,39,1
0,512,0,527,39,1
0,512,0,527,39,1
0,512,0,527,39,1
0,513,0,524,39,1
0,513,0,524,39,1
0,513,0,524,39,1
0,513,0,524,39,1
0,513,0,524,39,1
0,513,0,524,39,1
0,513,0,524,39,1
0,513,0,520,39,1
0,513,0,520,39,1
0,513,0,520,39,1
0,513,0,520,39,1
0,513,0,520,39,1
0,509,0,522,39,1
0,509,0,522,39,1
0,509,0,522,39,1
0,509,0,522,39,1
0,509,0,522,39,1
0,509,0,522,39,1
0,509,0,522,39,1
0,509,0,518,39,1
0,509,0,518,39,1
0,509,0,518,39,1
0,509,0,518,39,1
0,509,0,518,39,1
0,513,0,523,39,1
0,513,0,523,39,1
0,513,0,523,39,1
0,513,0,523,39,1
0,513,0,523,39,1
0,513,0,523,39,1
0,513,0,523,39,1
0,513,0,519,39,1
0,513,0,519,39,1
0,513,0,519,39,1
0,513,0,519,39,1
0,513,0,519,39,1
0,512,0,521,39,1
0,512,0,521,39,1
0,512,0,521,39,1
0,512,0,521,39,1
0,512,0,521,39,1
0,512,0,521,39,1
0,512,0,535,39,1
0,512,0,535,39,1
0,512,0,535,39,1
0,512,0,535,39,1
0,512,0,535,39,1
0,512,0,535,39,1
0,512,0,535,39,1
0,512,0,515,39,1
0,512,0,515,39,1
0,512,0,515,39,1
0,512,0,515,39,1
0,512,0,515,39,1
0,512,0,517,39,1
0,512,0,517,39,1
0,512,0,517,39,1
0,512,0,517,39,1
0,512,0,517,39,1
0,512,0,517,39,1
0,509,0,525,39,1
0,509,0,525,39,1
0,509,0,525,39,1
0,509,0,525,39,1
0,509,0,525,39,1
0,509,0,525,39,1
0,513,0,544,39,1
0,513,0,544,39,1
0,513,0,544,39,1
0,513,0,544,39,1
0,513,0,544,39,1
0,513,0,544,39,1
0,512,0,514,39,1
0,512,0,514,39,1
0,512,0,514,39,1
0,512,0,514,39,1
0,512,0,514,39,1
0,512,0,514,39,1
0,512,0,514,39,1
0,509,0,520,39,1
0,509,0,520,39,1
0,509,0,520,39,1
0,509,0,520,39,1
0,509,0,520,39,1
0,509,0,520,39,1
0,515,0,513,39,1
0,515,0,513,39,1
0,515,0,513,39,1
0,515,0,513,39,1
0,515,0,513,39,1
0,515,0,513,39,1
0,512,0,521,39,1
0,512,0,521,39,1
0,512,0,521,39,1
0,512,0,521,39,1
0,512,0,521,39,1
0,513,0,527,39,1
0,513,0,527,39,1
0,513,0,527,39,1
0,513,0,527,39,1
0,513,0,527,39,1
0,513,0,527,39,1
0,513,0,527,39,1
0,512,0,541,39,1
0,512,0,541,39,1
0,512,0,541,39,1
0,512,0,541,39,1
0,512,0,541,39,1
0,511,0,527,39,1
0,511,0,527,39,1
0,511,0,527,39,1
0,511,0,527,39,1
0,511,0,527,39,1
0,511,0,527,39,1
0,511,0,527,39,1
0,507,0,519,39,1
0,507,0,519,39,1
0,507,0,519,39,1
0,507,0,519,39,1
0,507,0,519,39,1
0,507,0,519,39,1
0,512,0,525,39,1
0,512,0,525,39,1
0,512,0,525,39,1
0,512,0,525,39,1
0,512,0,525,39,1
0,512,0,525,39,1
0,512,0,520,39,1
0,512,0,520,39,1
0,512,0,520,39,1
0,512,0,520,39,1
0,512,0,520,39,1
0,513,0,517,39,1
0,513,0,517,39,1
0,513,0,517,39,1
0,513,0,517,39,1
0,513,0,517,39,1
0,513,0,517,39,1
0,511,0,525,39,1
0,511,0,525,39,1
0,511,0,525,39,1
0,511,0,525,39,1
0,511,0,525,39,1
0,511,0,525,39,1
0,511,0,525,39,1
0,511,0,523,39,1
0,511,0,523,39,1
0,511,0,523,39,1
0,511,0,523,39,1
0,511,0,523,39,1
0,515,0,531,39,1
0,515,0,531,39,1
0,515,0,531,39,1
0,515,0,531,39,1
0,515,0,531,39,1
0,515,0,531,39,1
0,512,0,525,39,1
0,512,0,525,39,1
0,512,0,525,39,1
0,512,0,525,39,1
0,512,0,525,39,1
0,512,0,525,39,1
0,512,0,525,39,1
0,512,0,523,39,1
0,512,0,523,39,1
0,512,0,523,39,1
0,512,0,523,39,1
0,512,0,523,39,1
0,511,0,512,39,1
0,511,0,512,39,1
0,511,0,512,39,1
0,511,0,512,39,1
0,511,0,512,39,1
0,511,0,512,39,1
0,511,0,546,39,1
0,511,0,546,39,1
0,511,0,546,39,1
0,511,0,546,39,1
0,511,0,546,39,1
0,511,0,546,39,1
0,510,0,531,39,1
0,510,0,531,39,1
0,510,0,531,39,1
0,510,0,531,39,1
0,510,0,531,39,1
0,510,0,531,39,1
0,510,0,531,39,1
0,510,0,519,39,1
0,510,0,519,39,1
0,510,0,519,39,1
0,510,0,519,39,1
0,510,0,519,39,1
0,510,0,519,39,1
0,510,0,519,39,1
0,508,0,524,39,1
0,508,0,524,39,1
0,508,0,524,39,1
0,508,0,524,39,1
0,514,0,520,39,1
0,514,0,520,39,1
0,514,0,520,39,1
0,514,0,520,39,1
0,514,0,520,39,1
0,514,0,520,39,1
0,509,0,517,39,1
0,509,0,517,39,1
0,509,0,517,39,1
0,509,0,517,39,1
0,509,0,517,39,1
0,509,0,517,39,1
0,513,0,526,39,1
0,513,0,526,39,1
0,513,0,526,39,1
0,513,0,526,39,1
0,513,0,526,39,1
0,513,0,526,39,1
0,513,0,525,39,1
0,513,0,525,39,1
0,513,0,525,39,1
0,513,0,525,39,1
0,513,0,525,39,1
0,513,0,525,39,1
0,508,0,524,39,1
0,508,0,524,39,1
0,508,0,524,39,1
0,508,0,524,39,1
0,508,0,524,39,1
0,508,0,524,39,1
0,511,0,499,39,1
0,511,0,499,39,1
0,511,0,499,39,1
0,511,0,499,39,1
0,511,0,499,39,1
0,511,0,499,39,1
0,512,0,526,39,1
0,512,0,526,39,1
0,512,0,526,39,1
0,512,0,526,39,1
0,512,0,526,39,1
0,512,0,526,39,1
0,512,0,526,39,1
0,511,0,535,39,1
0,511,0,535,39,1
0,511,0,535,39,1
0,511,0,535,39,1
0,511,0,535,39,1
0,511,0,531,39,1
0,511,0,531,39,1
0,511,0,531,39,1
0,511,0,531,39,1
0,511,0,531,39,1
0,511,0,531,39,1
0,511,0,531,39,1
0,509,0,527,39,1
0,509,0,527,39,1
0,509,0,527,39,1
0,509,0,527,39,1
0,509,0,527,39,1
0,510,0,518,39,1
0,510,0,518,39,1
0,510,0,518,39,1
0,510,0,518,39,1
0,510,0,518,39,1
0,510,0,518,39,1
0,513,0,521,39,1
0,513,0,521,39,1
0,513,0,521,39,1
0,513,0,521,39,1
0,513,0,521,39,1
0,513,0,521,39,1
0,513,0,521,39,1
0,512,0,521,39,1
0,512,0,521,39,1
0,512,0,521,39,1
0,512,0,521,39,1
0,512,0,521,39,1
0,512,0,521,39,1
0,512,0,519,39,1
0,512,0,519,39,1
0,512,0,519,39,1
0,512,0,519,39,1
0,512,0,519,39,1
0,511,0,536,39,1
0,511,0,536,39,1
0,511,0,536,39,1
0,511,0,536,39,1
0,511,0,536,39,1
0,511,0,536,39,1
0,511,0,536,39,1
0,511,0,515,39,1
0,511,0,515,39,1
0,511,0,515,39,1
0,511,0,515,39,1
0,511,0,515,39,1
0,511,0,515,39,1
0,511,0,526,39,1
0,511,0,526,39,1
0,511,0,526,39,1
0,511,0,526,39,1
0,511,0,526,39,1
0,511,0,526,39,1
0,513,0,532,39,1
0,513,0,532,39,1
0,513,0,532,39,1
0,513,0,532,39,1
0,513,0,532,39,1
0,512,0,536,39,1
0,512,0,536,39,1
0,512,0,536,39,1
0,512,0,536,39,1
0,512,0,536,39,1
0,512,0,536,39,1
0,513,0,524,39,1
0,513,0,524,39,1
0,513,0,524,39,1
0,513,0,524,39,1
0,513,0,524,39,1
0,513,0,524,39,1
0,513,0,524,39,1
0,512,0,544,39,1
0,512,0,544,39,1
0,512,0,544,39,1
0,512,0,544,39,1
0,512,0,544,39,1
0,512,0,544,39,1
0,513,0,515,39,1
0,513,0,515,39,1
0,513,0,515,39,1
0,513,0,515,39,1
0,513,0,515,39,1
0,511,0,528,39,1
0,511,0,528,39,1
0,511,0,528,39,1
0,511,0,528,39,1
0,511,0,528,39,1
0,511,0,528,39,1
0,509,0,531,39,1
0,509,0,531,39,1
0,509,0,531,39,1
0,509,0,531,39,1
0,509,0,531,39,1
0,509,0,531,39,1
0,512,0,524,39,1
0,512,0,524,39,1
0,512,0,524,39,1
0,512,0,524,39,1
0,512,0,524,39,1
0,512,0,524,39,1
0,512,0,524,39,1
0,513,0,520,39,1
0,513,0,520,39,1
0,513,0,520,39,1
0,513,0,520,39,1
0,513,0,520,39,1
0,511,0,532,39,1
0,511,0,532,39,1
0,511,0,532,39,1
0,511,0,532,39,1
0,511,0,532,39,1
0,511,0,532,39,1
0,510,0,532,39,1
0,510,0,532,39,1
0,510,0,532,39,1
0,510,0,532,39,1
0,510,0,532,39,1
0,510,0,532,39,1
0,510,0,532,39,1
0,511,0,512,39,1
0,511,0,512,39,1
0,511,0,512,39,1
0,511,0,512,39,1
0,511,0,512,39,1
0,511,0,512,39,1
0,511,0,529,39,1
0,511,0,529,39,1
0,511,0,529,39,1
0,511,0,529,39,1
0,511,0,529,39,1
0,509,0,534,39,1
0,509,0,534,39,1
0,509,0,534,39,1
0,509,0,534,39,1
0,509,0,534,39,1
0,509,0,534,39,1
0,513,0,519,39,1
0,513,0,519,39,1
0,513,0,519,39,1
0,513,0,519,39,1
0,513,0,519,39,1
0,513,0,519,39,1
0,512,0,524,39,1
0,512,0,524,39,1
0,512,0,524,39,1
0,512,0,524,39,1
0,512,0,524,39,1
0,512,0,524,39,1
0,509,0,517,39,1
0,509,0,517,39,1
0,509,0,517,39,1
0,509,0,517,39,1
0,509,0,517,39,1
0,509,0,517,39,1
0,513,0,538,39,1
0,513,0,538,39,1
0,513,0,538,39,1
0,513,0,538,39,1
0,513,0,538,39,1
0,513,0,538,39,1
0,513,0,538,39,1
0,509,0,525,39,1
0,509,0,525,39,1
0,509,0,525,39,1
0,509,0,525,39,1
0,509,0,525,39,1
0,511,0,535,39,1
0,511,0,535,39,1
0,511,0,535,39,1
0,511,0,535,39,1
0,511,0,535,39,1
0,511,0,535,39,1
0,511,0,515,39,1
0,511,0,515,39,1
0,511,0,515,39,1
0,511,0,515,39,1
0,511,0,515,39,1
0,511,0,515,39,1
0,512,0,531,39,1
0,512,0,531,39,1
0,512,0,531,39,1
0,512,0,531,39,1
0,512,0,531,39,1
0,512,0,531,39,1
0,512,0,528,39,1
0,512,0,528,39,1
0,512,0,528,39,1
0,512,0,528,39,1
0,512,0,528,39,1
0,512,0,528,39,1
0,512,0,528,39,1
0,510,0,534,39,1
0,510,0,534,39,1
0,510,0,534,39,1
0,510,0,534,39,1
0,510,0,534,39,1
0,511,0,520,39,1
0,511,0,520,39,1
0,511,0,520,39,1
0,511,0,520,39,1
0,511,0,520,39,1
0,511,0,520,39,1
0,513,0,538,39,1
0,513,0,538,39,1
0,513,0,538,39,1
0,513,0,538,39,1
0,513,0,538,39,1
0,513,0,538,39,1
0,511,0,527,39,1
0,511,0,527,39,1
0,511,0,527,39,1
0,511,0,527,39,1
0,511,0,527,39,1
0,511,0,527,39,1
0,506,0,538,39,1
0,506,0,538,39,1
0,506,0,538,39,1
0,506,0,538,39,1
0,506,0,538,39,1
0,506,0,538,39,1
0,512,0,521,39,1
0,512,0,521,39,1
0,512,0,521,39,1
0,512,0,521,39,1
0,512,0,521,39,1
0,512,0,521,39,1
0,512,0,521,39,1
0,511,0,524,39,1
0,511,0,524,39,1
0,511,0,524,39,1
0,511,0,524,39,1
0,511,0,524,39,1
0,510,0,522,39,1
0,510,0,522,39,1
0,510,0,522,39,1
0,510,0,522,39,1
0,510,0,522,39,1
0,510,0,522,39,1
0,510,0,522,39,1
0,511,0,533,39,1
0,511,0,533,39,1
0,511,0,533,39,1
0,511,0,533,39,1
0,511,0,533,39,1
0,512,0,523,39,1
0,512,0,523,39,1
0,512,0,523,39,1
0,512,0,523,39,1
0,512,0,523,39,1
0,512,0,523,39,1
0,512,0,523,39,1
0,512,0,523,39,1
0,512,0,524,39,1
0,512,0,524,39,1
0,512,0,524,39,1
0,512,0,524,39,1
0,512,0,524,39,1
0,512,0,527,39,1
0,512,0,527,39,1
0,512,0,527,39,1
0,512,0,527,39,1
0,512,0,527,39,1
0,513,0,526,39,1
0,513,0,526,39,1
0,513,0,526,39,1
0,513,0,526,39,1
0,513,0,526,39,1
0,513,0,526,39,1
0,513,0,526,39,1
0,510,0,518,39,1
0,510,0,518,39,1
0,510,0,518,39,1
0,510,0,518,39,1
0,510,0,518,39,1
0,514,0,526,39,1
0,514,0,526,39,1
0,514,0,526,39,1
0,514,0,526,39,1
0,514,0,526,39,1
0,514,0,526,39,1
0,511,0,530,39,1
0,511,0,530,39,1
0,511,0,530,39,1
0,511,0,530,39,1
0,511,0,530,39,1
0,511,0,530,39,1
0,510,0,538,39,1
0,510,0,538,39,1
0,510,0,538,39,1
0,510,0,538,39,1
0,510,0,538,39,1
0,510,0,538,39,1
0,510,0,538,39,1
0,513,0,516,39,1
0,513,0,516,39,1
0,513,0,516,39,1
0,513,0,516,39,1
0,513,0,516,39,1
0,511,0,511,39,1
0,511,0,511,39,1
0,511,0,511,39,1
0,511,0,511,39,1
0,511,0,511,39,1
0,511,0,511,39,1
0,511,0,511,39,1
0,511,0,529,39,1
0,511,0,529,39,1
0,511,0,529,39,1
0,511,0,529,39,1
0,511,0,529,39,1
0,512,0,523,39,1
0,512,0,523,39,1
0,512,0,523,39,1
0,512,0,523,39,1
0,512,0,523,39,1
0,512,0,523,39,1
0,514,0,514,39,1
0,514,0,514,39,1
0,514,0,514,39,1
0,514,0,514,39,1
0,514,0,514,39,1
0,514,0,514,39,1
0,512,0,525,39,1
0,512,0,525,39,1
0,512,0,525,39,1
0,512,0,525,39,1
0,512,0,525,39,1
0,512,0,525,39,1
0,510,0,524,39,1
0,510,0,524,39,1
0,510,0,524,39,1
0,510,0,524,39,1
0,510,0,524,39,1
0,510,0,524,39,1
0,513,0,540,39,1
0,513,0,540,39,1
0,513,0,540,39,1
0,513,0,540,39,1
0,513,0,540,39,1
0,513,0,540,39,1
0,511,0,522,39,1
0,511,0,522,39,1
0,511,0,522,39,1
0,511,0,522,39,1
0,511,0,522,39,1
0,511,0,522,39,1
0,511,0,522,39,1
0,512,0,533,39,1
0,512,0,533,39,1
0,512,0,533,39,1
0,512,0,533,39,1
0,512,0,533,39,1
0,511,0,549,39,1
0,511,0,549,39,1
0,511,0,549,39,1
0,511,0,549,39,1
0,511,0,549,39,1
0,511,0,549,39,1
0,511,0,549,39,1
0,512,0,525,39,1
0,512,0,525,39,1
0,512,0,525,39,1
0,512,0,525,39,1
0,512,0,525,39,1
0,512,0,525,39,1
0,515,0,522,39,1
0,515,0,522,39,1
0,515,0,522,39,1
0,515,0,522,39,1
0,515,0,522,39,1
0,515,0,522,39,1
0,509,0,510,39,1
0,509,0,510,39,1
0,509,0,510,39,1
0,509,0,510,39,1
0,509,0,510,39,1
0,509,0,510,39,1
0,509,0,510,39,1
0,509,0,510,39,1
0,513,0,536,39,1
0,513,0,536,39,1
0,513,0,536,39,1
0,512,0,522,39,1
0,512,0,522,39,1
0,512,0,522,39,1
0,512,0,522,39,1
0,512,0,522,39,1
0,512,0,522,39,1
0,513,0,526,39,1
0,513,0,526,39,1
0,513,0,526,39,1
0,513,0,526,39,1
0,513,0,526,39,1
0,513,0,526,39,1
0,513,0,526,39,1
0,511,0,540,39,1
0,511,0,540,39,1
0,511,0,540,39,1
0,511,0,540,39,1
0,511,0,540,39,1
0,511,0,540,39,1
0,511,0,523,39,1
0,511,0,523,39,1
0,511,0,523,39,1
0,511,0,523,39,1
0,511,0,523,39,1
0,511,0,523,39,1
0,511,0,523,39,1
0,511,0,523,39,1
0,509,0,525,39,1
0,509,0,525,39,1
0,509,0,525,39,1
0,512,0,513,39,1
0,512,0,513,39,1
0,512,0,513,39,1
0,512,0,513,39,1
0,512,0,513,39,1
0,512,0,513,39,1
0,512,0,513,39,1
0,512,0,513,39,1
0,512,0,541,39,1
0,512,0,541,39,1
0,512,0,541,39,1
0,512,0,541,39,1
0,512,0,541,39,1
0,512,0,541,39,1
0,512,0,541,39,1
0,510,0,532,39,1
0,510,0,532,39,1
0,510,0,532,39,1
0,510,0,532,39,1
0,513,0,508,39,1
0,513,0,508,39,1
0,513,0,508,39,1
0,513,0,508,39,1
0,513,0,508,39,1
0,512,0,544,39,1
0,512,0,544,39,1
0,512,0,544,39,1
0,512,0,544,39,1
0,512,0,544,39,1
0,512,0,544,39,1
0,512,0,544,39,1
0,511,0,509,39,1
0,511,0,509,39,1
0,511,0,509,39,1
0,511,0,509,39,1
0,511,0,509,39,1
0,512,0,521,39,1
0,512,0,521,39,1
0,512,0,521,39,1
0,512,0,521,39,1
0,512,0,521,39,1
0,512,0,521,39,1
0,512,0,521,39,1
0,508,0,513,39,1
0,508,0,513,39,1
0,508,0,513,39,1
0,508,0,513,39,1
0,508,0,513,39,1
0,509,0,519,39,1
0,509,0,519,39,1
0,509,0,519,39,1
0,509,0,519,39,1
0,509,0,519,39,1
0,509,0,519,39,1
0,509,0,519,39,1
0,509,0,529,39,1
0,509,0,529,39,1
0,509,0,529,39,1
0,509,0,529,39,1
0,509,0,529,39,1
0,508,0,524,39,1
0,508,0,524,39,1
0,508,0,524,39,1
0,508,0,524,39,1
0,508,0,524,39,1
0,508,0,524,39,1
0,509,0,516,39,1
0,509,0,516,39,1
0,509,0,516,39,1
0,509,0,516,39,1
0,509,0,516,39,1
0,509,0,516,39,1
0,510,0,529,39,1
0,510,0,529,39,1
0,510,0,529,39,1
0,510,0,529,39,1
0,510,0,529,39,1
0,510,0,529,39,1
0,512,0,536,39,1
0,512,0,536,39,1
0,512,0,536,39,1
0,512,0,536,39,1
0,512,0,536,39,1
0,512,0,536,39,1
0,512,0,536,39,1
0,512,0,519,39,1
0,512,0,519,39,1
0,512,0,519,39,1
0,512,0,519,39,1
0,512,0,519,39,1
0,512,0,519,39,1
0,513,0,521,39,1
0,513,0,521,39,1
0,513,0,521,39,1
0,513,0,521,39,1
0,513,0,521,39,1
0,509,0,531,39,1
0,509,0,531,39,1
0,509,0,531,39,1
0,509,0,531,39,1
0,509,0,531,39,1
0,509,0,531,39,1
0,513,0,508,39,1
0,513,0,508,39,1
0,513,0,508,39,1
0,513,0,508,39,1
0,513,0,508,39,1
0,513,0,508,39,1
0,510,0,515,39,1
0,510,0,515,39,1
0,510,0,515,39,1
0,510,0,515,39,1
0,510,0,515,39,1
0,510,0,515,39,1
0,512,0,512,39,1
0,512,0,512,39,1
0,512,0,512,39,1
0,512,0,512,39,1
0,512,0,512,39,1
0,512,0,512,39,1
0,512,0,512,39,1
0,513,0,536,39,1
0,513,0,536,39,1
0,513,0,536,39,1
0,513,0,536,39,1
0,513,0,536,39,1
0,512,0,517,39,1
0,512,0,517,39,1
0,512,0,517,39,1
0,512,0,517,39,1
0,512,0,517,39,1
0,512,0,517,39,1
0,510,0,516,39,1
0,510,0,516,39,1
0,510,0,516,39,1
0,510,0,516,39,1
0,510,0,516,39,1
0,510,0,516,39,1
0,511,0,521,39,1
0,511,0,521,39,1
0,511,0,521,39,1
0,511,0,521,39,1
0,511,0,521,39,1
0,511,0,521,39,1
0,511,0,521,39,1
0,510,0,526,39,1
0,510,0,526,39,1
0,510,0,526,39,1
0,510,0,526,39,1
0,510,0,526,39,1
0,511,0,513,39,1
0,511,0,513,39,1
0,511,0,513,39,1
0,511,0,513,39,1
0,511,0,513,39,1
0,511,0,513,39,1
0,511,0,513,39,1
0,511,0,524,39,1
0,511,0,524,39,1
0,511,0,524,39,1
0,511,0,524,39,1
0,511,0,524,39,1
339,511,0,535,39,1
339,511,0,535,39,1
339,511,0,535,39,1
339,511,0,535,39,1
339,511,0,535,39,1
339,511,0,535,39,1
339,511,0,535,39,1
700,511,0,502,39,1
700,511,0,502,39,1
700,511,0,502,39,1
700,511,0,502,39,1
700,511,0,502,39,1
982,509,0,521,39,1
982,509,0,521,39,1
982,509,0,521,39,1
982,509,0,521,39,1
982,509,0,521,39,1
982,509,0,521,39,1
982,509,0,521,39,1
1022,512,0,507,39,1
1022,512,0,507,39,1
1022,512,0,507,39,1
1022,512,0,507,39,1
1022,512,0,507,39,1
1022,512,0,507,39,1
1022,508,0,515,39,1
1022,508,0,515,39,1
1022,508,0,515,39,1
1022,508,0,515,39,1
1022,508,0,515,39,1
1022,507,0,516,39,1
1022,507,0,516,39,1
1022,507,0,516,39,1
1022,507,0,516,39,1
1022,507,0,516,39,1
1022,507,0,516,39,1
1022,507,0,516,39,1
1022,509,0,520,39,1
1022,509,0,520,39,1
1022,509,0,520,39,1
1022,509,0,520,39,1
1022,509,0,520,39,1
1022,509,0,505,39,1
1022,509,0,505,39,1
1022,509,0,505,39,1
1022,509,0,505,39,1
1022,509,0,505,39,1
1022,509,0,505,39,1
1022,509,0,505,39,1
1022,512,0,517,39,1
1022,512,0,517,39,1
1022,512,0,517,39,1
1022,512,0,517,39,1
1022,512,0,517,39,1
1022,512,0,508,39,1
1022,512,0,508,39,1
1022,512,0,508,39,1
1022,512,0,508,39,1
1022,512,0,508,39,1
1022,512,0,508,39,1
1022,512,0,508,39,1
1022,512,0,508,39,1
1022,510,0,519,39,1
1022,510,0,519,39,1
1022,510,0,519,39,1
1022,510,0,519,39,1
1022,510,0,519,39,1
1022,505,0,519,39,1
1022,505,0,519,39,1
1022,505,0,519,39,1
1022,505,0,519,39,1
1022,505,0,519,39,1
1022,505,0,519,39,1
1022,511,0,505,39,1
1022,511,0,505,39,1
1022,511,0,505,39,1
1022,511,0,505,39,1
1022,511,0,505,39,1
1022,512,0,519,39,1
1022,512,0,519,39,1
1022,512,0,519,39,1
1022,512,0,519,39,1
1022,512,0,519,39,1
1022,512,0,519,39,1
1022,513,0,511,39,1
1022,513,0,511,39,1
1022,513,0,511,39,1
1022,513,0,511,39,1
1022,513,0,511,39,1
1022,513,0,511,39,1
1022,511,0,507,39,1
1022,511,0,507,39,1
1022,511,0,507,39,1
1022,511,0,507,39,1
1022,511,0,507,39,1
1022,511,0,507,39,1
1022,511,0,507,39,1
1022,511,0,500,39,1
1022,511,0,500,39,1
1022,511,0,500,39,1
1022,511,0,500,39,1
1022,511,0,500,39,1
1022,511,0,510,39,1
1022,511,0,510,39,1
1022,511,0,510,39,1
1022,511,0,510,39,1
1022,511,0,510,39,1
1022,511,0,510,39,1
1022,513,0,509,39,1
1022,513,0,509,39,1
1022,513,0,509,39,1
1022,513,0,509,39,1
1022,513,0,509,39,1
1022,513,0,509,39,1
1022,513,0,509,39,1
1022,511,0,502,39,1
1022,511,0,502,39,1
1022,511,0,502,39,1
1022,511,0,502,39,1
1022,511,0,502,39,1
1022,509,0,514,39,1
1022,509,0,514,39,1
1022,509,0,514,39,1
1022,509,0,514,39,1
1022,509,0,514,39,1
1022,509,0,514,39,1
1022,511,0,505,39,1
1022,511,0,505,39,1
1022,511,0,505,39,1
1022,511,0,505,39,1
1022,511,0,505,39,1
1022,511,0,505,39,1
1022,513,0,511,39,1
1022,513,0,511,39,1
1022,513,0,511,39,1
1022,513,0,511,39,1
1022,513,0,511,39,1
1022,513,0,511,39,1
1022,508,0,526,39,1
1022,508,0,526,39,1
1022,508,0,526,39,1
1022,508,0,526,39,1
1022,508,0,526,39,1
1022,508,0,526,39,1
1022,511,0,507,39,1
1022,511,0,507,39,1
1022,511,0,507,39,1
1022,511,0,507,39,1
1022,511,0,507,39,1
1022,511,0,507,39,1
1022,511,0,507,39,1
1022,511,0,516,39,1
1022,511,0,516,39,1
1022,511,0,516,39,1
1022,511,0,516,39,1
1022,511,0,516,39,1
1022,510,0,509,39,1
1022,510,0,509,39,1
1022,510,0,509,39,1
1022,510,0,509,39,1
1022,510,0,509,39,1
1022,510,0,509,39,1
1022,510,0,509,39,1
1022,511,0,523,39,1
1022,511,0,523,39,1
1022,511,0,523,39,1
1022,511,0,523,39,1
1022,511,0,523,39,1
1022,511,0,523,39,1
1022,512,0,499,39,1
1022,512,0,499,39,1
1022,512,0,499,39,1
1022,512,0,499,39,1
1022,512,0,499,39,1
1022,512,0,500,39,1
1022,512,0,500,39,1
1022,512,0,500,39,1
1022,512,0,500,39,1
1022,512,0,500,39,1
1022,512,0,500,39,1
1022,510,0,514,39,1
1022,510,0,514,39,1
1022,510,0,514,39,1
1022,510,0,514,39,1
1022,510,0,514,39,1
1022,510,0,514,39,1
1022,510,0,514,39,1
1022,513,0,507,39,1
1022,513,0,507,39,1
1022,513,0,507,39,1
1022,513,0,507,39,1
1022,513,0,507,39,1
1022,511,0,519,39,1
1022,511,0,519,39,1
1022,511,0,519,39,1
1022,511,0,519,39,1
1022,511,0,519,39,1
1022,511,0,519,39,1
1022,511,0,519,39,1
1022,509,0,511,39,1
1022,509,0,511,39,1
1022,509,0,511,39,1
1022,509,0,511,39,1
1022,509,0,511,39,1
1022,513,0,507,39,1
1022,513,0,507,39,1
1022,513,0,507,39,1
1022,513,0,507,39,1
1022,513,0,507,39,1
1022,513,0,507,39,1
1022,512,0,518,39,1
1022,512,0,518,39,1
1022,512,0,518,39,1
1022,512,0,518,39,1
1022,512,0,518,39,1
1022,512,0,518,39,1
1022,512,0,518,39,1
1022,511,0,503,39,1
1022,511,0,503,39,1
1022,511,0,503,39,1
1022,511,0,503,39,1
1022,511,0,503,39,1
1022,508,0,511,39,1
1022,508,0,511,39,1
1022,508,0,511,39,1
1022,508,0,511,39,1
1022,508,0,511,39,1
1022,508,0,511,39,1
1022,509,0,519,39,1
1022,509,0,519,39,1
1022,509,0,519,39,1
1022,509,0,519,39,1
1022,509,0,519,39,1
1022,509,0,519,39,1
1022,509,0,519,39,1
1022,509,0,519,39,1
1022,512,0,517,39,1
1022,512,0,517,39,1
1022,512,0,517,39,1
1022,512,0,517,39,1
1022,511,0,497,39,1
1022,511,0,497,39,1
1022,511,0,497,39,1
1022,511,0,497,39,1
1022,511,0,497,39,1
1022,511,0,497,39,1
1022,509,0,508,39,1
1022,509,0,508,39,1
1022,509,0,508,39,1
1022,509,0,508,39,1
1022,509,0,508,39,1
1022,509,0,508,39,1
1022,509,0,508,39,1
1022,509,0,508,39,1
1022,509,0,508,39,1
1022,509,0,508,39,1
1022,511,0,509,39,1
1022,511,0,509,39,1
1022,511,0,509,39,1
1022,510,0,504,39,1
1022,510,0,504,39,1
1022,510,0,504,39,1
1022,510,0,504,39,1
1022,510,0,504,39,1
1022,510,0,504,39,1
1022,515,0,507,39,1
1022,515,0,507,39,1
1022,515,0,507,39,1
1022,515,0,507,39,1
1022,515,0,507,39,1
1022,510,0,505,39,1
1022,510,0,505,39,1
1022,510,0,505,39,1
1022,510,0,505,39,1
1022,510,0,505,39,1
1022,510,0,505,39,1
1022,511,0,507,39,1
1022,511,0,507,39,1
1022,511,0,507,39,1
1022,511,0,507,39,1
1022,511,0,507,39,1
1022,511,0,507,39,1
1022,511,0,507,39,1
1022,511,0,507,39,1
1022,512,0,508,39,1
1022,512,0,508,39,1
1022,512,0,508,39,1
1022,512,0,508,39,1
1022,512,0,508,39,1
1022,512,0,508,39,1
1022,512,0,508,39,1
1022,513,0,500,39,1
1022,513,0,500,39,1
1022,513,0,500,39,1
1022,513,0,500,39,1
1022,513,0,500,39,1
1022,510,0,505,39,1
1022,510,0,505,39,1
1022,510,0,505,39,1
1022,510,0,505,39,1
1022,513,0,493,39,1
1022,513,0,493,39,1
1022,513,0,493,39,1
1022,513,0,493,39,1
1022,513,0,493,39,1
1022,513,0,493,39,1
1022,513,0,493,39,1
1022,508,0,506,39,1
1022,508,0,506,39,1
1022,508,0,506,39,1
1022,508,0,506,39,1
1022,508,0,506,39,1
1022,511,0,507,39,1
1022,511,0,507,39,1
1022,511,0,507,39,1
1022,511,0,507,39,1
1022,511,0,507,39,1
1022,511,0,507,39,1
1022,511,0,507,39,1
1022,511,0,507,39,1
1022,511,0,507,39,1
1022,511,0,507,39,1
1022,511,0,507,39,1
1022,511,0,507,39,1
1022,511,0,507,39,1
1022,507,0,500,39,1
1022,507,0,500,39,1
1022,507,0,500,39,1
1022,507,0,500,39,1
1022,507,0,500,39,1
1022,512,0,508,39,1
1022,512,0,508,39,1
1022,512,0,508,39,1
1022,512,0,508,39,1
1022,512,0,508,39,1
1022,512,0,508,39,1
1022,512,0,508,39,1
1022,508,0,500,39,1
1022,508,0,500,39,1
1022,508,0,500,39,1
1022,508,0,500,39,1
1022,508,0,500,39,1
1022,508,0,500,39,1
1022,508,0,500,39,1
1022,508,0,500,39,1
1022,510,0,509,39,1
1022,510,0,509,39,1
1022,510,0,509,39,1
1022,510,0,497,39,1
1022,510,0,497,39,1
1022,510,0,497,39,1
1022,510,0,497,39,1
1022,510,0,497,39,1
1022,510,0,497,39,1
1022,508,0,501,39,1
1022,508,0,501,39,1
1022,508,0,501,39,1
1022,508,0,501,39,1
1022,508,0,501,39,1
1022,508,0,501,39,1
1022,508,0,501,39,1
1022,511,0,504,39,1
1022,511,0,504,39,1
1022,511,0,504,39,1
1022,511,0,504,39,1
1022,511,0,504,39,1
1022,512,0,502,39,1
1022,512,0,502,39,1
1022,512,0,502,39,1
1022,512,0,502,39,1
1022,512,0,502,39,1
1022,512,0,502,39,1
1022,511,0,499,39,1
1022,511,0,499,39,1
1022,511,0,499,39,1
1022,511,0,499,39,1
1022,511,0,499,39,1
1022,511,0,499,39,1
1022,509,0,493,39,1
1022,509,0,493,39,1
1022,509,0,493,39,1
1022,509,0,493,39,1
1022,509,0,493,39,1
1022,509,0,493,39,1
1022,509,0,493,39,1
1022,512,0,509,39,1
1022,512,0,509,39,1
1022,512,0,509,39,1
1022,512,0,509,39,1
1022,512,0,509,39,1
1022,505,0,498,39,1
1022,505,0,498,39,1
1022,505,0,498,39,1
1022,505,0,498,39,1
1022,505,0,498,39,1
1022,505,0,498,39,1
1022,505,0,498,39,1
1022,510,0,500,39,1
1022,510,0,500,39,1
1022,510,0,500,39,1
1022,510,0,500,39,1
1022,510,0,500,39,1
1022,513,0,491,39,1
1022,513,0,491,39,1
1022,513,0,491,39,1
1022,513,0,491,39,1
1022,513,0,491,39,1
1022,513,0,491,39,1
1022,513,0,491,39,1
1022,515,0,495,39,1
1022,515,0,495,39,1
1022,515,0,495,39,1
1022,515,0,495,39,1
1022,515,0,495,39,1
1022,512,0,494,39,1
1022,512,0,494,39,1
1022,512,0,494,39,1
1022,512,0,494,39,1
1022,512,0,494,39,1
1022,512,0,494,39,1
1022,511,0,499,39,1
1022,511,0,499,39,1
1022,511,0,499,39,1
1022,511,0,499,39,1
1022,511,0,499,39,1
1022,511,0,499,39,1
1022,511,0,499,39,1
1022,512,0,512,39,1
1022,512,0,512,39,1
1022,512,0,512,39,1
1022,512,0,512,39,1
1022,512,0,512,39,1
1022,512,0,512,39,1
1022,514,0,483,39,1
1022,514,0,483,39,1
1022,514,0,483,39,1
1022,514,0,483,39,1
1022,514,0,483,39,1
1022,512,0,501,39,1
1022,512,0,501,39,1
1022,512,0,501,39,1
1022,512,0,501,39,1
1022,512,0,501,39,1
1022,512,0,501,39,1
1022,513,0,493,39,1
1022,513,0,493,39,1
1022,513,0,493,39,1
1022,513,0,493,39,1
1022,513,0,493,39,1
1022,513,0,493,39,1
1022,513,0,493,39,1
1022,512,0,483,39,1
1022,512,0,483,39,1
1022,512,0,483,39,1
1022,512,0,483,39,1
1022,512,0,483,39,1
1022,511,0,489,39,1
1022,511,0,489,39,1
1022,511,0,489,39,1
1022,511,0,489,39,1
1022,511,0,489,39,1
1022,511,0,489,39,1
1022,511,0,489,39,1
1022,511,0,489,39,1
1022,511,0,489,39,1
1022,511,0,489,39,1
1022,511,0,489,39,1
1022,511,0,489,39,1
1022,513,0,497,39,1
1022,513,0,497,39,1
1022,513,0,497,39,1
1022,513,0,497,39,1
1022,513,0,497,39,1
1022,513,0,497,39,1
1022,510,0,500,39,1
1022,510,0,500,39,1
1022,510,0,500,39,1
1022,510,0,500,39,1
1022,510,0,500,39,1
1022,510,0,500,39,1
1022,510,0,500,39,1
1022,511,0,499,39,1
1022,511,0,499,39,1
1022,511,0,499,39,1
1022,511,0,499,39,1
1022,511,0,499,39,1
1022,511,0,499,39,1
1022,510,0,496,39,1
1022,510,0,496,39,1
1022,510,0,496,39,1
1022,510,0,496,39,1
1022,510,0,496,39,1
1022,511,0,496,39,1
1022,511,0,496,39,1
1022,511,0,496,39,1
1022,511,0,496,39,1
1022,511,0,496,39,1
1022,511,0,496,39,1
1022,511,0,496,39,1
1022,513,0,504,39,1
1022,513,0,504,39,1
1022,513,0,504,39,1
1022,513,0,504,39,1
1022,513,0,504,39,1
1022,511,0,497,39,1
1022,511,0,497,39,1
1022,511,0,497,39,1
1022,511,0,497,39,1
1022,511,0,497,39,1
1022,511,0,497,39,1
1022,511,0,497,39,1
1022,512,0,487,39,1
1022,512,0,487,39,1
1022,512,0,487,39,1
1022,512,0,487,39,1
1022,512,0,487,39,1
1022,512,0,495,39,1
1022,512,0,495,39,1
1022,512,0,495,39,1
1022,512,0,495,39,1
1022,512,0,495,39,1
1022,512,0,495,39,1
1022,512,0,495,39,1
1022,512,0,495,39,1
1022,510,0,491,39,1
1022,510,0,491,39,1
1022,510,0,491,39,1
1022,510,0,491,39,1
1022,510,0,491,39,1
1022,510,0,487,39,1
1022,510,0,487,39,1
1022,510,0,487,39,1
1022,510,0,487,39,1
1022,510,0,487,39,1
1022,510,0,487,39,1
1022,512,0,510,39,1
1022,512,0,510,39,1
1022,512,0,510,39,1
1022,512,0,510,39,1
1022,512,0,510,39,1
1022,513,0,498,39,1
1022,513,0,498,39,1
1022,513,0,498,39,1
1022,513,0,498,39,1
1022,513,0,498,39,1
1022,513,0,498,39,1
1022,510,0,485,39,1
1022,510,0,485,39,1
1022,510,0,485,39,1
1022,510,0,485,39,1
1022,510,0,485,39,1
1022,510,0,485,39,1
1022,513,0,486,39,1
1022,513,0,486,39,1
1022,513,0,486,39,1
1022,513,0,486,39,1
1022,513,0,486,39,1
1022,513,0,486,39,1
1022,511,0,488,39,1
1022,511,0,488,39,1
1022,511,0,488,39,1
1022,511,0,488,39,1
1022,511,0,488,39,1
1022,511,0,488,39,1
1022,510,0,494,39,1
1022,510,0,494,39,1
1022,510,0,494,39,1
1022,510,0,494,39,1
1022,510,0,494,39,1
1022,510,0,494,39,1
1022,510,0,494,39,1
1022,515,0,489,39,1
1022,515,0,489,39,1
1022,515,0,489,39,1
1022,515,0,489,39,1
1022,515,0,489,39,1
1022,511,0,490,39,1
1022,511,0,490,39,1
1022,511,0,490,39,1
1022,511,0,490,39,1
1022,511,0,490,39,1
1022,511,0,490,39,1
1022,511,0,490,39,1
1022,513,0,499,39,1
1022,513,0,499,39,1
1022,513,0,499,39,1
1022,513,0,499,39,1
1022,513,0,499,39,1
1022,510,0,498,39,1
1022,510,0,498,39,1
1022,510,0,498,39,1
1022,510,0,498,39,1
1022,510,0,498,39,1
1022,510,0,498,39,1
1022,510,0,498,39,1
1022,511,0,489,39,1
1022,511,0,489,39,1
1022,511,0,489,39,1
1022,511,0,489,39,1
1022,511,0,489,39,1
1022,512,0,500,39,1
1022,512,0,500,39,1
1022,512,0,500,39,1
1022,512,0,500,39,1
1022,512,0,500,39,1
1022,512,0,500,39,1
1022,510,0,500,39,1
1022,510,0,500,39,1
1022,510,0,500,39,1
1022,510,0,500,39,1
1022,510,0,500,39,1
1022,510,0,500,39,1
1022,513,0,486,39,1
1022,513,0,486,39,1
1022,513,0,486,39,1
1022,513,0,486,39,1
1022,513,0,486,39,1
1022,513,0,486,39,1
1022,512,0,498,39,1
1022,512,0,498,39,1
1022,512,0,498,39,1
1022,512,0,498,39,1
1022,512,0,498,39,1
1022,512,0,498,39,1
1022,512,0,498,39,1
1022,516,0,502,39,1
1022,516,0,502,39,1
1022,516,0,502,39,1
1022,516,0,502,39,1
1022,516,0,502,39,1
1022,516,0,502,39,1
1022,512,0,497,39,1
1022,512,0,497,39,1
1022,512,0,497,39,1
1022,512,0,497,39,1
1022,512,0,497,39,1
1022,512,0,497,39,1
1022,510,0,496,39,1
1022,510,0,496,39,1
1022,510,0,496,39,1
1022,510,0,496,39,1
1022,510,0,496,39,1
1022,512,0,490,39,1
1022,512,0,490,39,1
1022,512,0,490,39,1
1022,512,0,490,39,1
1022,512,0,490,39,1
1022,512,0,490,39,1
1022,511,0,488,39,1
1022,511,0,488,39,1
1022,511,0,488,39,1
1022,511,0,488,39,1
1022,511,0,488,39,1
1022,511,0,488,39,1
1022,510,0,502,39,1
1022,510,0,502,39,1
1022,510,0,502,39,1
1022,510,0,502,39,1
1022,510,0,502,39,1
1022,510,0,502,39,1
1022,513,0,484,39,1
1022,513,0,484,39,1
1022,513,0,484,39,1
1022,513,0,484,39,1
1022,513,0,484,39,1
1022,513,0,484,39,1
1022,513,0,484,39,1
1022,510,0,502,39,1
1022,510,0,502,39,1
1022,510,0,502,39,1
1022,510,0,502,39,1
1022,510,0,502,39,1
1022,515,0,504,39,1
1022,515,0,504,39,1
1022,515,0,504,39,1
1022,515,0,504,39,1
1022,515,0,504,39,1
1022,515,0,504,39,1
1022,511,0,494,39,1
1022,511,0,494,39,1
1022,511,0,494,39,1
1022,511,0,494,39,1
1022,511,0,494,39,1
1022,511,0,494,39,1
1022,511,0,487,39,1
1022,511,0,487,39,1
1022,511,0,487,39,1
1022,511,0,487,39,1
1022,511,0,487,39,1
1022,511,0,487,39,1
1022,514,0,488,39,1
1022,514,0,488,39,1
1022,514,0,488,39,1
1022,514,0,488,39,1
1022,514,0,488,39,1
1022,514,0,488,39,1
1022,511,0,491,39,1
1022,511,0,491,39,1
1022,511,0,491,39,1
1022,511,0,491,39,1
1022,511,0,491,39,1
1022,511,0,491,39,1
1022,512,0,494,39,1
1022,512,0,494,39,1
1022,512,0,494,39,1
1022,512,0,494,39,1
1022,512,0,494,39,1
1022,512,0,494,39,1
1022,512,0,494,39,1
1022,513,0,489,39,1
1022,513,0,489,39,1
1022,513,0,489,39,1
1022,513,0,489,39,1
1022,513,0,489,39,1
1022,510,0,488,39,1
1022,510,0,488,39,1
1022,510,0,488,39,1
1022,510,0,488,39,1
1022,510,0,488,39,1
1022,510,0,488,39,1
1022,512,0,491,39,1
1022,512,0,491,39,1
1022,512,0,491,39,1
1022,512,0,491,39,1
1022,512,0,491,39,1
1022,512,0,491,39,1
1022,512,0,491,39,1
1022,510,0,489,39,1
1022,510,0,489,39,1
1022,510,0,489,39,1
1022,510,0,489,39,1
1022,510,0,489,39,1
1022,512,0,492,39,1
1022,512,0,492,39,1
1022,512,0,492,39,1
1022,512,0,492,39,1
1022,512,0,492,39,1
1022,512,0,492,39,1
1022,511,0,486,39,1
1022,511,0,486,39,1
1022,511,0,486,39,1
1022,511,0,486,39,1
1022,511,0,486,39,1
1022,511,0,486,39,1
1022,512,0,488,39,1
1022,512,0,488,39,1
1022,512,0,488,39,1
1022,512,0,488,39,1
1022,512,0,488,39,1
1022,512,0,488,39,1
1022,510,0,487,39,1
1022,510,0,487,39,1
1022,510,0,487,39,1
1022,510,0,487,39,1
1022,510,0,487,39,1
1022,510,0,487,39,1
1022,512,0,498,39,1
1022,512,0,498,39,1
1022,512,0,498,39,1
1022,512,0,498,39,1
1022,512,0,498,39,1
1022,512,0,498,39,1
1022,512,0,498,39,1
1022,515,0,492,39,1
1022,515,0,492,39,1
1022,515,0,492,39,1
1022,515,0,492,39,1
1022,515,0,492,39,1
1022,512,0,491,39,1
1022,512,0,491,39,1
1022,512,0,491,39,1
1022,512,0,491,39,1
1022,512,0,491,39,1
1022,512,0,491,39,1
1022,509,0,495,39,1
1022,509,0,495,39,1
1022,509,0,495,39,1
1022,509,0,495,39,1
1022,509,0,495,39,1
1022,509,0,495,39,1
1022,510,0,492,39,1
1022,510,0,492,39,1
1022,510,0,492,39,1
1022,510,0,492,39,1
1022,510,0,492,39,1
1022,510,0,492,39,1
1022,512,0,495,39,1
1022,512,0,495,39,1
1022,512,0,495,39,1
1022,512,0,495,39,1
1022,512,0,495,39,1
1022,512,0,495,39,1
1022,512,0,495,39,1
1022,510,0,490,39,1
1022,510,0,490,39,1
1022,510,0,490,39,1
1022,510,0,490,39,1
1022,510,0,490,39,1
1022,512,0,499,39,1
1022,512,0,499,39,1
1022,512,0,499,39,1
1022,512,0,499,39,1
1022,512,0,499,39,1
1022,512,0,499,39,1
1022,510,0,493,39,1
1022,510,0,493,39,1
1022,510,0,493,39,1
1022,510,0,493,39,1
1022,510,0,493,39,1
1022,510,0,493,39,1
1022,510,0,493,39,1
1022,515,0,481,39,1
1022,515,0,481,39,1
1022,515,0,481,39,1
1022,515,0,481,39,1
1022,515,0,481,39,1
1022,512,0,486,39,1
1022,512,0,486,39,1
1022,512,0,486,39,1
1022,512,0,486,39,1
1022,512,0,486,39,1
1022,512,0,486,39,1
1022,510,0,499,39,1
1022,510,0,499,39,1
1022,510,0,499,39,1
1022,510,0,499,39,1
1022,510,0,499,39,1
1022,510,0,499,39,1
1022,510,0,499,39,1
1022,510,0,499,39,1
1022,512,0,496,39,1
1022,512,0,496,39,1
1022,512,0,496,39,1
1022,512,0,496,39,1
1022,510,0,497,39,1
1022,510,0,497,39,1
1022,510,0,497,39,1
1022,510,0,497,39,1
1022,510,0,497,39,1
1022,510,0,497,39,1
1022,512,0,496,39,1
1022,512,0,496,39,1
1022,512,0,496,39,1
1022,512,0,496,39,1
1022,512,0,496,39,1
1022,512,0,496,39,1
1022,511,0,491,39,1
1022,511,0,491,39,1
1022,511,0,491,39,1
1022,511,0,491,39,1
1022,511,0,491,39,1
1022,511,0,491,39,1
1022,513,0,489,39,1
1022,513,0,489,39,1
1022,513,0,489,39,1
1022,513,0,489,39,1
1022,513,0,489,39,1
1022,513,0,489,39,1
1022,514,0,505,39,1
1022,514,0,505,39,1
1022,514,0,505,39,1
1022,514,0,505,39,1
1022,514,0,505,39,1
1022,514,0,505,39,1
1022,508,0,481,39,1
1022,508,0,481,39,1
1022,508,0,481,39,1
1022,508,0,481,39,1
1022,508,0,481,39,1
1022,508,0,481,39,1
1022,508,0,481,39,1
1022,514,0,507,39,1
1022,514,0,507,39,1
1022,514,0,507,39,1
1022,514,0,507,39,1
1022,514,0,507,39,1
1022,512,0,502,39,1
1022,512,0,502,39,1
1022,512,0,502,39,1
1022,512,0,502,39,1
1022,512,0,502,39,1
1022,512,0,502,39,1
1022,517,0,500,39,1
1022,517,0,500,39,1
1022,517,0,500,39,1
1022,517,0,500,39,1
1022,517,0,500,39,1
1022,517,0,500,39,1
1022,517,0,500,39,1
1022,513,0,499,39,1
1022,513,0,499,39,1
1022,513,0,499,39,1
1022,513,0,499,39,1
1022,513,0,499,39,1
1022,513,0,499,39,1
1022,515,0,496,39,1
1022,515,0,496,39,1
1022,515,0,496,39,1
1022,515,0,496,39,1
1022,515,0,496,39,1
1022,510,0,505,39,1
1022,510,0,505,39,1
1022,510,0,505,39,1
1022,510,0,505,39,1
1022,510,0,505,39,1
1022,510,0,505,39,1
1022,514,0,493,39,1
1022,514,0,493,39,1
1022,514,0,493,39,1
1022,514,0,493,39,1
1022,514,0,493,39,1
1022,514,0,493,39,1
1022,514,0,493,39,1
1022,512,0,489,39,1
1022,512,0,489,39,1
1022,512,0,489,39,1
1022,512,0,489,39,1
1022,512,0,489,39,1
1022,512,0,489,39,1
1022,513,0,504,39,1
1022,513,0,504,39,1
1022,513,0,504,39,1
1022,513,0,504,39,1
1022,513,0,504,39,1
1022,512,0,499,38,1
