0,0,0,0,0,0
0,0,0,0,0,0
0,0,0,0,0,0
0,0,0,0,0,0
0,0,0,0,0,0
0,0,0,0,0,0
0,0,0,0,0,0
0,0,0,0,0,0
0,0,0,0,0,0
0,0,0,0,0,0
0,0,0,0,0,0
0,0,0,0,0,0
0,0,0,0,0,0
0,509,0,525,39,1
0,509,0,525,39,1
0,509,0,525,39,1
0,509,0,525,39,1
0,509,0,525,39,1
0,509,0,525,39,1
0,509,0,525,39,1
0,509,0,525,39,1
0,512,0,516,39,1
0,512,0,516,39,1
0,512,0,516,39,1
0,512,0,516,39,1
0,512,0,516,39,1
0,512,0,522,39,1
0,512,0,522,39,1
0,512,0,522,39,1
0,512,0,522,39,1
0,512,0,522,39,1
0,512,0,527,39,1
0,512,0,527,39,1
0,512,0,527,39,1
0,512,0,527,39,1
0,512,0,527,39,1
0,512,0,527,39,1
0,512,0,527,39,1
0,510,0,518,39,1
0,510,0,518,39,1
0,510,0,518,39,1
0,510,0,518,39,1
0,510,0,518,39,1
0,510,0,517,39,1
0,510,0,517,39,1
0,510,0,517,39,1
0,510,0,517,39,1
0,510,0,517,39,1
0,510,0,517,39,1
0,511,0,531,39,1
0,511,0,531,39,1
0,511,0,531,39,1
0,511,0,531,39,1
0,511,0,531,39,1
0,511,0,531,39,1
0,512,0,519,39,1
0,512,0,519,39,1
0,512,0,519,39,1
0,512,0,519,39,1
0,512,0,519,39,1
0,512,0,519,39,1
0,512,0,519,39,1
0,514,0,523,39,1
0,514,0,523,39,1
0,514,0,523,39,1
0,514,0,523,39,1
0,514,0,523,39,1
0,509,0,526,39,1
0,509,0,526,39,1
0,509,0,526,39,1
0,509,0,526,39,1
0,509,0,526,39,1
0,509,0,526,39,1
0,512,0,531,39,1
0,512,0,531,39,1
0,512,0,531,39,1
0,512,0,531,39,1
0,512,0,531,39,1
0,512,0,531,39,1
0,510,0,526,39,1
0,510,0,526,39,1
0,510,0,526,39,1
0,510,0,526,39,1
0,510,0,526,39,1
0,510,0,526,39,1
0,509,0,522,39,1
0,509,0,522,39,1
0,509,0,522,39,1
0,509,0,522,39,1
0,509,0,522,39,1
0,509,0,522,39,1
0,509,0,522,39,1
0,511,0,533,39,1
0,511,0,533,39,1
0,511,0,533,39,1
0,511,0,533,39,1
0,511,0,533,39,1
0,510,0,527,39,1
0,510,0,527,39,1
0,510,0,527,39,1
0,510,0,527,39,1
0,510,0,527,39,1
0,510,0,527,39,1
0,510,0,528,39,1
0,510,0,528,39,1
0,510,0,528,39,1
0,510,0,528,39,1
0,510,0,528,39,1
0,510,0,528,39,1
0,512,0,523,39,1
0,512,0,523,39,1
0,512,0,523,39,1
0,512,0,523,39,1
0,512,0,523,39,1
0,512,0,523,39,1
0,511,0,528,39,1
0,511,0,528,39,1
0,511,0,528,39,1
0,511,0,528,39,1
0,511,0,528,39,1
0,511,0,528,39,1
0,511,0,518,39,1
0,511,0,518,39,1
0,511,0,518,39,1
0,511,0,518,39,1
0,511,0,518,39,1
0,511,0,518,39,1
0,510,0,533,39,1
0,510,0,533,39,1
0,510,0,533,39,1
0,510,0,533,39,1
0,510,0,533,39,1
0,510,0,533,39,1
0,511,0,527,39,1
0,511,0,527,39,1
0,511,0,527,39,1
0,511,0,527,39,1
0,511,0,527,39,1
0,511,0,527,39,1
0,512,0,522,39,1
0,512,0,522,39,1
0,512,0,522,39,1
0,512,0,522,39,1
0,512,0,522,39,1
0,512,0,522,39,1
0,512,0,531,39,1
0,512,0,531,39,1
0,512,0,531,39,1
0,512,0,531,39,1
0,512,0,531,39,1
0,512,0,531,39,1
0,513,0,527,39,1
0,513,0,527,39,1
0,513,0,527,39,1
0,513,0,527,39,1
0,513,0,527,39,1
0,513,0,527,39,1
0,509,0,527,39,1
0,509,0,527,39,1
0,509,0,527,39,1
0,509,0,527,39,1
0,509,0,527,39,1
0,509,0,527,39,1
0,509,0,527,39,1
0,511,0,530,39,1
0,511,0,530,39,1
0,511,0,530,39,1
0,511,0,530,39,1
0,511,0,530,39,1
0,511,0,530,39,1
0,510,0,519,39,1
0,510,0,519,39,1
0,510,0,519,39,1
0,510,0,519,39,1
0,510,0,519,39,1
0,510,0,519,39,1
0,510,0,519,39,1
0,510,0,519,39,1
0,511,0,529,39,1
0,511,0,529,39,1
0,511,0,529,39,1
0,510,0,514,39,1
0,510,0,514,39,1
0,510,0,514,39,1
0,510,0,514,39,1
0,510,0,514,39,1
0,510,0,514,39,1
0,512,0,545,39,1
0,512,0,545,39,1
0,512,0,545,39,1
0,512,0,545,39,1
0,512,0,545,39,1
0,512,0,545,39,1
0,510,0,519,39,1
0,510,0,519,39,1
0,510,0,519,39,1
0,510,0,519,39,1
0,510,0,519,39,1
0,510,0,519,39,1
0,508,0,530,39,1
0,508,0,530,39,1
0,508,0,530,39,1
0,508,0,530,39,1
0,508,0,530,39,1
0,508,0,530,39,1
0,508,0,530,39,1
0,509,0,525,39,1
0,509,0,525,39,1
0,509,0,525,39,1
0,509,0,525,39,1
0,509,0,525,39,1
0,509,0,525,39,1
0,509,0,525,39,1
0,509,0,525,39,1
0,509,0,525,39,1
0,514,0,525,39,1
0,514,0,525,39,1
0,511,0,520,39,1
0,511,0,520,39,1
0,511,0,520,39,1
0,511,0,520,39,1
0,511,0,520,39,1
0,511,0,520,39,1
0,510,0,523,39,1
0,510,0,523,39,1
0,510,0,523,39,1
0,510,0,523,39,1
0,510,0,523,39,1
0,510,0,523,39,1
0,514,0,516,39,1
0,514,0,516,39,1
0,514,0,516,39,1
0,514,0,516,39,1
0,514,0,516,39,1
0,514,0,516,39,1
0,508,0,534,39,1
0,508,0,534,39,1
0,508,0,534,39,1
0,508,0,534,39,1
0,508,0,534,39,1
0,508,0,534,39,1
0,511,0,534,39,1
0,511,0,534,39,1
0,511,0,534,39,1
0,511,0,534,39,1
0,511,0,534,39,1
0,511,0,534,39,1
0,510,0,523,39,1
0,510,0,523,39,1
0,510,0,523,39,1
0,510,0,523,39,1
0,510,0,523,39,1
0,510,0,523,39,1
0,510,0,523,39,1
0,514,0,527,39,1
0,514,0,527,39,1
0,514,0,527,39,1
0,514,0,527,39,1
0,514,0,527,39,1
0,514,0,527,39,1
0,508,0,519,39,1
0,508,0,519,39,1
0,508,0,519,39,1
0,508,0,519,39,1
0,508,0,519,39,1
0,509,0,536,39,1
0,509,0,536,39,1
0,509,0,536,39,1
0,509,0,536,39,1
0,509,0,536,39,1
0,509,0,536,39,1
0,509,0,536,39,1
0,509,0,536,39,1
0,509,0,536,39,1
0,509,0,536,39,1
0,509,0,536,39,1
0,509,0,536,39,1
0,513,0,515,39,1
0,513,0,515,39,1
0,513,0,515,39,1
0,513,0,515,39,1
0,513,0,515,39,1
0,513,0,515,39,1
0,512,0,523,39,1
0,512,0,523,39,1
0,512,0,523,39,1
0,512,0,523,39,1
0,512,0,523,39,1
0,512,0,523,39,1
0,512,0,523,39,1
0,512,0,523,39,1
0,512,0,530,39,1
0,512,0,530,39,1
0,512,0,530,39,1
0,515,0,518,39,1
0,515,0,518,39,1
0,515,0,518,39,1
0,515,0,518,39,1
0,515,0,518,39,1
0,515,0,518,39,1
0,515,0,518,39,1
0,507,0,528,39,1
0,507,0,528,39,1
0,507,0,528,39,1
0,507,0,528,39,1
0,507,0,528,39,1
0,507,0,528,39,1
0,507,0,528,39,1
0,513,0,519,39,1
0,513,0,519,39,1
0,513,0,519,39,1
0,513,0,519,39,1
0,513,0,519,39,1
0,512,0,528,39,1
0,512,0,528,39,1
0,512,0,528,39,1
0,512,0,528,39,1
0,512,0,528,39,1
0,512,0,528,39,1
0,509,0,513,39,1
0,509,0,513,39,1
0,509,0,513,39,1
0,509,0,513,39,1
0,509,0,513,39,1
0,509,0,513,39,1
0,510,0,515,39,1
0,510,0,515,39,1
0,510,0,515,39,1
0,510,0,515,39,1
0,510,0,515,39,1
0,510,0,515,39,1
0,513,0,521,39,1
0,513,0,521,39,1
0,513,0,521,39,1
0,513,0,521,39,1
0,513,0,521,39,1
0,513,0,521,39,1
0,510,0,528,39,1
0,510,0,528,39,1
0,510,0,528,39,1
0,510,0,528,39,1
0,510,0,528,39,1
0,510,0,528,39,1
0,510,0,528,39,1
0,510,0,519,39,1
0,510,0,519,39,1
0,510,0,519,39,1
0,510,0,519,39,1
0,510,0,519,39,1
0,512,0,535,39,1
0,512,0,535,39,1
0,512,0,535,39,1
0,512,0,535,39,1
0,512,0,535,39,1
0,512,0,535,39,1
0,508,0,526,39,1
0,508,0,526,39,1
0,508,0,526,39,1
0,508,0,526,39,1
0,508,0,526,39,1
0,508,0,526,39,1
0,508,0,526,39,1
0,511,0,528,39,1
0,511,0,528,39,1
0,511,0,528,39,1
0,511,0,528,39,1
0,511,0,528,39,1
0,511,0,528,39,1
0,511,0,524,39,1
0,511,0,524,39,1
0,511,0,524,39,1
0,511,0,524,39,1
0,511,0,524,39,1
0,509,0,516,39,1
0,509,0,516,39,1
0,509,0,516,39,1
0,509,0,516,39,1
0,509,0,516,39,1
0,509,0,516,39,1
0,509,0,516,39,1
0,512,0,522,39,1
0,512,0,522,39,1
0,512,0,522,39,1
0,512,0,522,39,1
0,512,0,522,39,1
0,508,0,522,39,1
0,508,0,522,39,1
0,508,0,522,39,1
0,508,0,522,39,1
0,508,0,522,39,1
0,508,0,522,39,1
0,511,0,531,39,1
0,511,0,531,39,1
0,511,0,531,39,1
0,511,0,531,39,1
0,511,0,531,39,1
0,511,0,531,39,1
0,511,0,531,39,1
0,511,0,513,39,1
0,511,0,513,39,1
0,511,0,513,39,1
0,511,0,513,39,1
0,511,0,513,39,1
0,511,0,513,39,1
0,511,0,513,39,1
0,510,0,527,39,1
0,510,0,527,39,1
0,510,0,527,39,1
0,510,0,527,39,1
0,508,0,537,39,1
0,508,0,537,39,1
0,508,0,537,39,1
0,508,0,537,39,1
0,508,0,537,39,1
0,508,0,537,39,1
0,510,0,521,39,1
0,510,0,521,39,1
0,510,0,521,39,1
0,510,0,521,39,1
0,510,0,521,39,1
0,510,0,521,39,1
0,513,0,515,39,1
0,513,0,515,39,1
0,513,0,515,39,1
0,513,0,515,39,1
0,513,0,515,39,1
0,513,0,515,39,1
0,513,0,515,39,1
0,513,0,529,39,1
0,513,0,529,39,1
0,513,0,529,39,1
0,513,0,529,39,1
0,513,0,529,39,1
0,510,0,513,39,1
0,510,0,513,39,1
0,510,0,513,39,1
0,510,0,513,39,1
0,510,0,513,39,1
0,510,0,513,39,1
0,513,0,520,39,1
0,513,0,520,39,1
0,513,0,520,39,1
0,513,0,520,39,1
0,513,0,520,39,1
0,513,0,520,39,1
0,510,0,529,39,1
0,510,0,529,39,1
0,510,0,529,39,1
0,510,0,529,39,1
0,510,0,529,39,1
0,510,0,529,39,1
0,512,0,528,39,1
0,512,0,528,39,1
0,512,0,528,39,1
0,512,0,528,39,1
0,512,0,528,39,1
0,512,0,528,39,1
0,511,0,526,39,1
0,511,0,526,39,1
0,511,0,526,39,1
0,511,0,526,39,1
0,511,0,526,39,1
0,511,0,526,39,1
0,510,0,516,39,1
0,510,0,516,39,1
0,510,0,516,39,1
0,510,0,516,39,1
0,510,0,516,39,1
0,510,0,516,39,1
0,509,0,529,39,1
0,509,0,529,39,1
0,509,0,529,39,1
0,509,0,529,39,1
0,509,0,529,39,1
0,509,0,529,39,1
0,511,0,521,39,1
0,511,0,521,39,1
0,511,0,521,39,1
0,511,0,521,39,1
0,511,0,521,39,1
0,511,0,521,39,1
0,510,0,520,39,1
0,510,0,520,39,1
0,510,0,520,39,1
0,510,0,520,39,1
0,510,0,520,39,1
0,510,0,520,39,1
0,512,0,518,39,1
0,512,0,518,39,1
0,512,0,518,39,1
0,512,0,518,39,1
0,512,0,518,39,1
0,512,0,518,39,1
0,512,0,518,39,1
0,509,0,519,39,1
0,509,0,519,39,1
0,509,0,519,39,1
0,509,0,519,39,1
0,509,0,519,39,1
0,512,0,528,39,1
0,512,0,528,39,1
0,512,0,528,39,1
0,512,0,528,39,1
0,512,0,528,39,1
0,512,0,528,39,1
0,512,0,519,39,1
0,512,0,519,39,1
0,512,0,519,39,1
0,512,0,519,39,1
0,512,0,519,39,1
0,512,0,519,39,1
0,508,0,513,39,1
0,508,0,513,39,1
0,508,0,513,39,1
0,508,0,513,39,1
0,508,0,513,39,1
0,508,0,513,39,1
0,510,0,526,39,1
0,510,0,526,39,1
0,510,0,526,39,1
0,510,0,526,39,1
0,510,0,526,39,1
0,510,0,526,39,1
0,512,0,526,39,1
0,512,0,526,39,1
0,512,0,526,39,1
0,512,0,526,39,1
0,512,0,526,39,1
0,512,0,526,39,1
0,512,0,519,39,1
0,512,0,519,39,1
0,512,0,519,39,1
0,512,0,519,39,1
0,512,0,519,39,1
0,512,0,519,39,1
0,512,0,521,39,1
0,512,0,521,39,1
0,512,0,521,39,1
0,512,0,521,39,1
0,512,0,521,39,1
0,512,0,521,39,1
182,514,0,515,39,1
182,514,0,515,39,1
182,514,0,515,39,1
182,514,0,515,39,1
182,514,0,515,39,1
182,514,0,515,39,1
313,512,0,519,39,1
313,512,0,519,39,1
313,512,0,519,39,1
313,512,0,519,39,1
313,512,0,519,39,1
313,512,0,519,39,1
499,510,0,520,39,1
499,510,0,520,39,1
499,510,0,520,39,1
499,510,0,520,39,1
499,510,0,520,39,1
499,510,0,520,39,1
499,510,0,520,39,1
685,509,0,514,39,1
685,509,0,514,39,1
685,509,0,514,39,1
685,509,0,514,39,1
685,509,0,514,39,1
849,511,0,528,39,1
849,511,0,528,39,1
849,511,0,528,39,1
849,511,0,528,39,1
849,511,0,528,39,1
849,511,0,528,39,1
1013,510,0,521,39,1
1013,510,0,521,39,1
1013,510,0,521,39,1
1013,510,0,521,39,1
1013,510,0,521,39,1
1013,510,0,521,39,1
1022,511,0,518,39,1
1022,511,0,518,39,1
1022,511,0,518,39,1
1022,511,0,518,39,1
1022,511,0,518,39,1
1022,511,0,518,39,1
1022,514,0,528,39,1
1022,514,0,528,39,1
1022,514,0,528,39,1
1022,514,0,528,39,1
1022,514,0,528,39,1
1022,514,0,528,39,1
1022,508,0,518,39,1
1022,508,0,518,39,1
1022,508,0,518,39,1
1022,508,0,518,39,1
1022,508,0,518,39,1
1022,508,0,518,39,1
1022,508,0,518,39,1
1022,508,0,518,39,1
1022,510,0,524,39,1
1022,510,0,524,39,1
1022,510,0,524,39,1
1022,510,0,524,39,1
1022,510,0,524,39,1
1022,509,0,515,39,1
1022,509,0,515,39,1
1022,509,0,515,39,1
1022,509,0,515,39,1
1022,509,0,515,39,1
1022,512,0,519,39,1
1022,512,0,519,39,1
1022,512,0,519,39,1
1022,512,0,519,39,1
1022,512,0,519,39,1
1022,512,0,519,39,1
1022,510,0,514,39,1
1022,510,0,514,39,1
1022,510,0,514,39,1
1022,510,0,514,39,1
1022,510,0,514,39,1
1022,510,0,514,39,1
1022,510,0,514,39,1
1022,511,0,517,39,1
1022,511,0,517,39,1
1022,511,0,517,39,1
1022,511,0,517,39,1
1022,508,0,507,39,1
1022,508,0,507,39,1
1022,508,0,507,39,1
1022,508,0,507,39,1
1022,508,0,507,39,1
1022,508,0,507,39,1
1022,508,0,507,39,1
1022,508,0,507,39,1
1022,509,0,521,39,1
1022,509,0,521,39,1
1022,509,0,521,39,1
1022,509,0,521,39,1
1022,509,0,521,39,1
1022,507,0,516,39,1
1022,507,0,516,39,1
1022,507,0,516,39,1
1022,507,0,516,39,1
1022,507,0,516,39,1
1022,507,0,516,39,1
1022,511,0,520,39,1
1022,511,0,520,39,1
1022,511,0,520,39,1
1022,511,0,520,39,1
1022,511,0,520,39,1
1022,511,0,520,39,1
1022,509,0,510,39,1
1022,509,0,510,39,1
1022,509,0,510,39,1
1022,509,0,510,39,1
1022,509,0,510,39,1
1022,509,0,510,39,1
1022,509,0,510,39,1
1022,515,0,527,39,1
1022,515,0,527,39,1
1022,515,0,527,39,1
1022,515,0,527,39,1
1022,515,0,527,39,1
1022,509,0,514,39,1
1022,509,0,514,39,1
1022,509,0,514,39,1
1022,509,0,514,39,1
1022,509,0,514,39,1
1022,509,0,514,39,1
1022,510,0,517,39,1
1022,510,0,517,39,1
1022,510,0,517,39,1
1022,510,0,517,39,1
1022,510,0,517,39,1
1022,510,0,517,39,1
1022,508,0,526,39,1
1022,508,0,526,39,1
1022,508,0,526,39,1
1022,508,0,526,39,1
1022,508,0,526,39,1
1022,508,0,526,39,1
1022,511,0,514,39,1
1022,511,0,514,39,1
1022,511,0,514,39,1
1022,511,0,514,39,1
1022,511,0,514,39,1
1022,511,0,514,39,1
1022,511,0,519,39,1
1022,511,0,519,39,1
1022,511,0,519,39,1
1022,511,0,519,39,1
1022,511,0,519,39,1
1022,511,0,519,39,1
1022,511,0,519,39,1
1022,508,0,519,39,1
1022,508,0,519,39,1
1022,508,0,519,39,1
1022,508,0,519,39,1
1022,508,0,519,39,1
1022,508,0,513,39,1
1022,508,0,513,39,1
1022,508,0,513,39,1
1022,508,0,513,39,1
1022,508,0,513,39,1
1022,509,0,512,39,1
1022,509,0,512,39,1
1022,509,0,512,39,1
1022,509,0,512,39,1
1022,509,0,512,39,1
1022,509,0,512,39,1
1022,509,0,512,39,1
1022,510,0,512,39,1
1022,510,0,512,39,1
1022,510,0,512,39,1
1022,510,0,512,39,1
1022,510,0,512,39,1
1022,510,0,512,39,1
1022,510,0,519,39,1
1022,510,0,519,39,1
1022,510,0,519,39,1
1022,510,0,519,39,1
1022,510,0,519,39,1
1022,510,0,519,39,1
1022,510,0,519,39,1
1022,508,0,515,39,1
1022,508,0,515,39,1
1022,508,0,515,39,1
1022,508,0,515,39,1
1022,508,0,515,39,1
1022,509,0,509,39,1
1022,509,0,509,39,1
1022,509,0,509,39,1
1022,509,0,509,39,1
1022,509,0,509,39,1
1022,509,0,509,39,1
1022,509,0,509,39,1
1022,509,0,509,39,1
1022,509,0,509,39,1
1022,510,0,519,39,1
1022,510,0,519,39,1
1022,510,0,519,39,1
1022,510,0,505,39,1
1022,510,0,505,39,1
1022,510,0,505,39,1
1022,510,0,505,39,1
1022,510,0,505,39,1
1022,510,0,505,39,1
1022,510,0,512,39,1
1022,510,0,512,39,1
1022,510,0,512,39,1
1022,510,0,512,39,1
1022,510,0,512,39,1
1022,510,0,512,39,1
1022,510,0,512,39,1
1022,510,0,512,39,1
1022,510,0,512,39,1
1022,514,0,518,39,1
1022,514,0,518,39,1
1022,514,0,518,39,1
1022,511,0,517,39,1
1022,511,0,517,39,1
1022,511,0,517,39,1
1022,511,0,517,39,1
1022,511,0,517,39,1
1022,511,0,517,39,1
1022,511,0,516,39,1
1022,511,0,516,39,1
1022,511,0,516,39,1
1022,511,0,516,39,1
1022,511,0,516,39,1
1022,511,0,516,39,1
1022,513,0,514,39,1
1022,513,0,514,39,1
1022,513,0,514,39,1
1022,513,0,514,39,1
1022,513,0,514,39,1
1022,513,0,514,39,1
1022,510,0,500,39,1
1022,510,0,500,39,1
1022,510,0,500,39,1
1022,510,0,500,39,1
1022,510,0,500,39,1
1022,510,0,500,39,1
1022,510,0,518,39,1
1022,510,0,518,39,1
1022,510,0,518,39,1
1022,510,0,518,39,1
1022,510,0,518,39,1
1022,511,0,512,39,1
1022,511,0,512,39,1
1022,511,0,512,39,1
1022,511,0,512,39,1
1022,511,0,512,39,1
1022,511,0,512,39,1
1022,511,0,512,39,1
1022,511,0,514,39,1
1022,511,0,514,39,1
1022,511,0,514,39,1
1022,511,0,514,39,1
1022,511,0,514,39,1
1022,511,0,514,39,1
1022,513,0,504,39,1
1022,513,0,504,39,1
1022,513,0,504,39,1
1022,513,0,504,39,1
1022,513,0,504,39,1
1022,513,0,504,39,1
1022,510,0,504,39,1
1022,510,0,504,39,1
1022,510,0,504,39,1
1022,510,0,504,39,1
1022,510,0,504,39,1
1022,510,0,504,39,1
1022,514,0,514,39,1
1022,514,0,514,39,1
1022,514,0,514,39,1
1022,514,0,514,39,1
1022,514,0,514,39,1
1022,514,0,514,39,1
1022,510,0,505,39,1
1022,510,0,505,39,1
1022,510,0,505,39,1
1022,510,0,505,39,1
1022,510,0,505,39,1
1022,512,0,509,39,1
1022,512,0,509,39,1
1022,512,0,509,39,1
1022,512,0,509,39,1
1022,512,0,509,39,1
1022,512,0,509,39,1
1022,511,0,514,39,1
1022,511,0,514,39,1
1022,511,0,514,39,1
1022,511,0,514,39,1
1022,511,0,514,39,1
1022,511,0,514,39,1
1022,511,0,514,39,1
1022,511,0,518,39,1
1022,511,0,518,39,1
1022,511,0,518,39,1
1022,511,0,518,39,1
1022,511,0,518,39,1
1022,511,0,518,39,1
1022,511,0,518,39,1
1022,511,0,518,39,1
1022,511,0,518,39,1
1022,509,0,509,39,1
1022,509,0,509,39,1
1022,509,0,509,39,1
1022,509,0,509,39,1
1022,512,0,520,39,1
1022,512,0,520,39,1
1022,512,0,520,39,1
1022,512,0,520,39,1
1022,512,0,520,39,1
1022,511,0,500,39,1
1022,511,0,500,39,1
1022,511,0,500,39,1
1022,511,0,500,39,1
1022,511,0,500,39,1
1022,511,0,500,39,1
1022,511,0,497,39,1
1022,511,0,497,39,1
1022,511,0,497,39,1
1022,511,0,497,39,1
1022,511,0,497,39,1
1022,511,0,497,39,1
1022,511,0,497,39,1
1022,512,0,507,39,1
1022,512,0,507,39,1
1022,512,0,507,39,1
1022,512,0,507,39,1
1022,512,0,507,39,1
1022,512,0,511,39,1
1022,512,0,511,39,1
1022,512,0,511,39,1
1022,512,0,511,39,1
1022,512,0,511,39,1
1022,509,0,500,39,1
1022,509,0,500,39,1
1022,509,0,500,39,1
1022,509,0,500,39,1
1022,509,0,500,39,1
1022,509,0,500,39,1
1022,509,0,500,39,1
1022,511,0,508,39,1
1022,511,0,508,39,1
1022,511,0,508,39,1
1022,511,0,508,39,1
1022,511,0,508,39,1
1022,511,0,508,39,1
1022,510,0,497,39,1
1022,510,0,497,39,1
1022,510,0,497,39,1
1022,510,0,497,39,1
1022,510,0,497,39,1
1022,511,0,511,39,1
1022,511,0,511,39,1
1022,511,0,511,39,1
1022,511,0,511,39,1
1022,511,0,511,39,1
1022,511,0,511,39,1
1022,511,0,511,39,1
1022,515,0,498,39,1
1022,515,0,498,39,1
1022,515,0,498,39,1
1022,515,0,498,39,1
1022,515,0,498,39,1
1022,509,0,496,39,1
1022,509,0,496,39,1
1022,509,0,496,39,1
1022,509,0,496,39,1
1022,509,0,496,39,1
1022,509,0,496,39,1
1022,509,0,496,39,1
1022,509,0,496,39,1
1022,509,0,496,39,1
1022,509,0,496,39,1
1022,509,0,496,39,1
1022,509,0,496,39,1
1022,514,0,504,39,1
1022,510,0,510,39,1
1022,510,0,510,39,1
1022,510,0,510,39,1
1022,510,0,510,39,1
1022,510,0,510,39,1
1022,510,0,510,39,1
1022,510,0,510,39,1
1022,509,0,505,39,1
1022,509,0,505,39,1
1022,509,0,505,39,1
1022,509,0,505,39,1
1022,509,0,505,39,1
1022,514,0,498,39,1
1022,514,0,498,39,1
1022,514,0,498,39,1
1022,514,0,498,39,1
1022,514,0,498,39,1
1022,514,0,498,39,1
1022,514,0,498,39,1
1022,514,0,498,39,1
1022,513,0,509,39,1
1022,513,0,509,39,1
1022,513,0,509,39,1
1022,513,0,509,39,1
1022,514,0,504,39,1
1022,514,0,504,39,1
1022,514,0,504,39,1
1022,514,0,504,39,1
1022,514,0,504,39,1
1022,514,0,504,39,1
1022,512,0,497,39,1
1022,512,0,497,39,1
1022,512,0,497,39,1
1022,512,0,497,39,1
1022,512,0,497,39,1
1022,512,0,497,39,1
1022,508,0,499,39,1
1022,508,0,499,39,1
1022,508,0,499,39,1
1022,508,0,499,39,1
1022,508,0,499,39,1
1022,508,0,499,39,1
1022,513,0,502,39,1
1022,513,0,502,39,1
1022,513,0,502,39,1
1022,513,0,502,39,1
1022,513,0,502,39,1
1022,513,0,502,39,1
1022,512,0,502,39,1
1022,512,0,502,39,1
1022,512,0,502,39,1
1022,512,0,502,39,1
1022,512,0,502,39,1
1022,512,0,502,39,1
1022,512,0,498,39,1
1022,512,0,498,39,1
1022,512,0,498,39,1
1022,512,0,498,39,1
1022,512,0,498,39,1
1022,512,0,498,39,1
1022,512,0,498,39,1
1022,512,0,498,39,1
1022,510,0,506,39,1
1022,510,0,506,39,1
1022,510,0,506,39,1
1022,510,0,506,39,1
1022,509,0,494,39,1
1022,509,0,494,39,1
1022,509,0,494,39,1
1022,509,0,494,39,1
1022,509,0,494,39,1
1022,509,0,494,39,1
1022,513,0,502,39,1
1022,513,0,502,39,1
1022,513,0,502,39,1
1022,513,0,502,39,1
1022,513,0,502,39,1
1022,513,0,502,39,1
1022,513,0,502,39,1
1022,513,0,502,39,1
1022,513,0,501,39,1
1022,513,0,501,39,1
1022,513,0,501,39,1
1022,513,0,501,39,1
1022,513,0,501,39,1
1022,513,0,501,39,1
1022,513,0,501,39,1
1022,513,0,501,39,1
1022,513,0,501,39,1
1022,510,0,501,39,1
1022,510,0,501,39,1
1022,510,0,501,39,1
1022,507,0,494,39,1
1022,507,0,494,39,1
1022,507,0,494,39,1
1022,507,0,494,39,1
1022,511,0,506,39,1
1022,511,0,506,39,1
1022,511,0,506,39,1
1022,511,0,506,39,1
1022,511,0,506,39,1
1022,511,0,506,39,1
1022,511,0,506,39,1
1022,511,0,506,39,1
1022,511,0,506,39,1
1022,517,0,491,39,1
1022,517,0,491,39,1
1022,517,0,491,39,1
1022,513,0,496,39,1
1022,513,0,496,39,1
1022,513,0,496,39,1
1022,513,0,496,39,1
1022,513,0,496,39,1
1022,513,0,496,39,1
1022,509,0,493,39,1
1022,509,0,493,39,1
1022,509,0,493,39,1
1022,509,0,493,39,1
1022,509,0,493,39,1
1022,509,0,493,39,1
1022,510,0,492,39,1
1022,510,0,492,39,1
1022,510,0,492,39,1
1022,510,0,492,39,1
1022,510,0,492,39,1
1022,510,0,492,39,1
1022,514,0,494,39,1
1022,514,0,494,39,1
1022,514,0,494,39,1
1022,514,0,494,39,1
1022,514,0,494,39,1
1022,514,0,494,39,1
1022,514,0,494,39,1
1022,511,0,507,39,1
1022,511,0,507,39,1
1022,511,0,507,39,1
1022,511,0,507,39,1
1022,511,0,507,39,1
1022,511,0,490,39,1
1022,511,0,490,39,1
1022,511,0,490,39,1
1022,511,0,490,39,1
1022,511,0,490,39,1
1022,511,0,490,39,1
1022,511,0,504,39,1
1022,511,0,504,39,1
1022,511,0,504,39,1
1022,511,0,504,39,1
1022,511,0,504,39,1
1022,511,0,504,39,1
1022,511,0,504,39,1
1022,511,0,504,39,1
1022,511,0,504,39,1
1022,511,0,504,39,1
1022,511,0,504,39,1
1022,511,0,504,39,1
1022,511,0,504,39,1
1022,511,0,504,39,1
1022,511,0,504,39,1
1022,511,0,504,39,1
1022,511,0,504,39,1
1022,513,0,499,39,1
1022,513,0,499,39,1
1022,513,0,499,39,1
1022,511,0,507,39,1
1022,511,0,507,39,1
1022,511,0,507,39,1
1022,511,0,507,39,1
1022,511,0,507,39,1
1022,513,0,499,39,1
1022,513,0,499,39,1
1022,513,0,499,39,1
1022,513,0,499,39,1
1022,513,0,499,39,1
1022,514,0,499,39,1
1022,514,0,499,39,1
1022,514,0,499,39,1
1022,514,0,499,39,1
1022,514,0,499,39,1
1022,514,0,499,39,1
1022,512,0,491,39,1
1022,512,0,491,39,1
1022,512,0,491,39,1
1022,512,0,491,39,1
1022,512,0,491,39,1
1022,512,0,491,39,1
1022,511,0,502,39,1
1022,511,0,502,39,1
1022,511,0,502,39,1
1022,511,0,502,39,1
1022,511,0,502,39,1
1022,511,0,502,39,1
1022,511,0,497,39,1
1022,511,0,497,39,1
1022,511,0,497,39,1
1022,511,0,497,39,1
1022,511,0,497,39,1
1022,511,0,497,39,1
1022,512,0,492,39,1
1022,512,0,492,39,1
1022,512,0,492,39,1
1022,512,0,492,39,1
1022,512,0,492,39,1
1022,512,0,492,39,1
1022,514,0,503,39,1
1022,514,0,503,39,1
1022,514,0,503,39,1
1022,514,0,503,39,1
1022,514,0,503,39,1
1022,514,0,503,39,1
1022,511,0,501,39,1
1022,511,0,501,39,1
1022,511,0,501,39,1
1022,511,0,501,39,1
1022,511,0,501,39,1
1022,511,0,501,39,1
1022,511,0,501,39,1
1022,511,0,510,39,1
1022,511,0,510,39,1
1022,511,0,510,39,1
1022,511,0,510,39,1
1022,511,0,510,39,1
1022,512,0,507,39,1
1022,512,0,507,39,1
1022,512,0,507,39,1
1022,512,0,507,39,1
1022,512,0,507,39,1
1022,513,0,489,39,1
1022,513,0,489,39,1
1022,513,0,489,39,1
1022,513,0,489,39,1
1022,513,0,489,39,1
1022,513,0,489,39,1
1022,513,0,489,39,1
1022,510,0,499,39,1
1022,510,0,499,39,1
1022,510,0,499,39,1
1022,510,0,499,39,1
1022,510,0,499,39,1
1022,510,0,499,39,1
1022,513,0,495,39,1
1022,513,0,495,39,1
1022,513,0,495,39,1
1022,513,0,495,39,1
1022,513,0,495,39,1
1022,513,0,495,39,1
1022,513,0,501,39,1
1022,513,0,501,39,1
1022,513,0,501,39,1
1022,513,0,501,39,1
1022,513,0,501,39,1
1022,513,0,501,39,1
1022,513,0,501,39,1
1022,513,0,501,39,1
1022,513,0,501,39,1
1022,512,0,499,39,1
1022,512,0,499,39,1
1022,512,0,499,39,1
1022,513,0,506,39,1
1022,513,0,506,39,1
1022,513,0,506,39,1
1022,513,0,506,39,1
1022,513,0,506,39,1
1022,513,0,506,39,1
1022,509,0,500,39,1
1022,509,0,500,39,1
1022,509,0,500,39,1
1022,509,0,500,39,1
1022,509,0,500,39,1
1022,509,0,500,39,1
1022,511,0,502,39,1
1022,511,0,502,39,1
1022,511,0,502,39,1
1022,511,0,502,39,1
1022,511,0,502,39,1
1022,511,0,502,39,1
1022,513,0,496,39,1
1022,513,0,496,39,1
1022,513,0,496,39,1
1022,513,0,496,39,1
1022,513,0,496,39,1
1022,514,0,488,39,1
1022,514,0,488,39,1
1022,514,0,488,39,1
1022,514,0,488,39,1
1022,514,0,488,39,1
1022,514,0,488,39,1
1022,514,0,488,39,1
1022,511,0,500,39,1
1022,511,0,500,39,1
1022,511,0,500,39,1
1022,511,0,500,39,1
1022,511,0,500,39,1
1022,511,0,500,39,1
1022,514,0,505,39,1
1022,514,0,505,39,1
1022,514,0,505,39,1
1022,514,0,505,39,1
1022,514,0,505,39,1
1022,514,0,505,39,1
1022,515,0,492,39,1
1022,515,0,492,39,1
1022,515,0,492,39,1
1022,515,0,492,39,1
1022,515,0,492,39,1
1022,515,0,492,39,1
1022,511,0,489,39,1
1022,511,0,489,39,1
1022,511,0,489,39,1
1022,511,0,489,39,1
1022,511,0,489,39,1
1022,511,0,489,39,1
1022,512,0,493,39,1
1022,512,0,493,39,1
1022,512,0,493,39,1
1022,512,0,493,39,1
1022,512,0,493,39,1
1022,512,0,493,39,1
1022,509,0,488,39,1
1022,509,0,488,39,1
1022,509,0,488,39,1
1022,509,0,488,39,1
1022,509,0,488,39,1
1022,509,0,488,39,1
1022,513,0,509,39,1
1022,513,0,509,39,1
1022,513,0,509,39,1
1022,513,0,509,39,1
1022,513,0,509,39,1
1022,513,0,509,39,1
1022,513,0,509,39,1
1022,513,0,509,39,1
1022,512,0,496,39,1
1022,512,0,496,39,1
1022,512,0,496,39,1
1022,512,0,496,39,1
1022,512,0,496,39,1
1022,512,0,496,39,1
1022,512,0,496,39,1
1022,510,0,494,39,1
1022,510,0,494,39,1
1022,510,0,494,39,1
1022,515,0,491,39,1
1022,515,0,491,39,1
1022,515,0,491,39,1
1022,515,0,491,39,1
1022,515,0,491,39,1
1022,515,0,491,39,1
1022,515,0,491,39,1
1022,510,0,492,39,1
1022,510,0,492,39,1
1022,510,0,492,39,1
1022,510,0,492,39,1
1022,510,0,492,39,1
1022,514,0,500,39,1
1022,514,0,500,39,1
1022,514,0,500,39,1
1022,514,0,500,39,1
1022,514,0,500,39,1
1022,514,0,500,39,1
1022,512,0,498,39,1
1022,512,0,498,39,1
1022,512,0,498,39,1
1022,512,0,498,39,1
1022,512,0,498,39,1
1022,511,0,483,39,1
1022,511,0,483,39,1
1022,511,0,483,39,1
1022,511,0,483,39,1
1022,511,0,483,39,1
1022,511,0,483,39,1
1022,511,0,483,39,1
1022,510,0,494,39,1
1022,510,0,494,39,1
1022,510,0,494,39,1
1022,510,0,494,39,1
1022,510,0,494,39,1
1022,510,0,494,39,1
1022,514,0,498,39,1
1022,514,0,498,39,1
1022,514,0,498,39,1
1022,514,0,498,39,1
1022,514,0,498,39,1
1022,514,0,498,39,1
1022,514,0,500,39,1
1022,514,0,500,39,1
1022,514,0,500,39,1
1022,514,0,500,39,1
1022,514,0,500,39,1
1022,514,0,500,39,1
1022,514,0,500,39,1
1022,514,0,500,39,1
1022,514,0,500,39,1
1022,512,0,500,39,1
1022,512,0,500,39,1
1022,512,0,500,39,1
1022,512,0,492,39,1
1022,512,0,492,39,1
1022,512,0,492,39,1
1022,512,0,492,39,1
1022,512,0,492,39,1
1022,512,0,492,39,1
1022,512,0,492,39,1
1022,514,0,495,39,1
1022,514,0,495,39,1
1022,514,0,495,39,1
1022,514,0,495,39,1
1022,514,0,495,39,1
1022,514,0,495,39,1
1022,514,0,495,39,1
1022,514,0,495,39,1
1022,512,0,508,39,1
1022,512,0,508,39,1
1022,512,0,508,39,1
1022,512,0,508,39,1
1022,512,0,498,39,1
1022,512,0,498,39,1
1022,512,0,498,39,1
1022,512,0,498,39,1
1022,512,0,498,39,1
1022,512,0,505,39,1
1022,512,0,505,39,1
1022,512,0,505,39,1
1022,512,0,505,39,1
1022,512,0,505,39,1
1022,512,0,505,39,1
1022,512,0,505,39,1
1022,512,0,505,39,1
1022,512,0,505,39,1
1022,514,0,498,39,1
1022,514,0,498,39,1
1022,514,0,498,39,1
1022,514,0,498,39,1
1022,512,0,505,39,1
1022,512,0,505,39,1
1022,512,0,505,39,1
1022,512,0,505,39,1
1022,512,0,505,39,1
1022,510,0,496,39,1
1022,510,0,496,39,1
1022,510,0,496,39,1
1022,510,0,496,39,1
1022,510,0,496,39,1
1022,510,0,496,39,1
1022,510,0,496,39,1
1022,510,0,496,39,1
1022,510,0,496,39,1
1022,513,0,499,39,1
1022,513,0,499,39,1
1022,513,0,499,39,1
1022,514,0,499,39,1
1022,514,0,499,39,1
1022,514,0,499,39,1
1022,514,0,499,39,1
1022,514,0,499,39,1
1022,514,0,499,39,1
1022,511,0,509,39,1
1022,511,0,509,39,1
1022,511,0,509,39,1
1022,511,0,509,39,1
1022,511,0,509,39,1
1022,515,0,489,39,1
1022,515,0,489,39,1
1022,515,0,489,39,1
1022,515,0,489,39,1
1022,515,0,489,39,1
1022,515,0,489,39,1
1022,515,0,489,39,1
1022,513,0,502,39,1
1022,513,0,502,39,1
1022,513,0,502,39,1
1022,513,0,502,39,1
1022,513,0,502,39,1
1022,513,0,502,39,1
1022,513,0,502,39,1
1022,510,0,492,39,1
1022,510,0,492,39,1
1022,510,0,492,39,1
1022,510,0,492,39,1
1022,510,0,492,39,1
1022,511,0,491,39,1
1022,511,0,491,39,1
1022,511,0,491,39,1
1022,511,0,491,39,1
1022,511,0,491,39,1
1022,511,0,491,39,1
1022,510,0,497,39,1
1022,510,0,497,39,1
1022,510,0,497,39,1
1022,510,0,497,39,1
1022,510,0,497,39,1
1022,510,0,497,39,1
1022,510,0,497,39,1
1022,511,0,488,39,1
1022,511,0,488,39,1
1022,511,0,488,39,1
1022,511,0,488,39,1
1022,511,0,488,39,1
1022,511,0,493,39,1
1022,511,0,493,39,1
1022,511,0,493,39,1
1022,511,0,493,39,1
1022,511,0,493,39,1
1022,511,0,493,39,1
1022,514,0,495,39,1
1022,514,0,495,39,1
1022,514,0,495,39,1
1022,514,0,495,39,1
1022,514,0,495,39,1
1022,514,0,495,39,1
1022,512,0,483,39,1
1022,512,0,483,39,1
1022,512,0,483,39,1
1022,512,0,483,39,1
1022,512,0,483,39,1
1022,512,0,483,39,1
1022,513,0,500,39,1
1022,513,0,500,39,1
1022,513,0,500,39,1
1022,513,0,500,39,1
1022,513,0,500,39,1
1022,513,0,500,39,1
1022,514,0,491,39,1
1022,514,0,491,39,1
1022,514,0,491,39,1
1022,514,0,491,39,1
1022,514,0,491,39,1
1022,514,0,491,39,1
1022,512,0,491,39,1
1022,512,0,491,39,1
1022,512,0,491,39,1
1022,512,0,491,39,1
1022,512,0,491,39,1
1022,512,0,491,39,1
1022,516,0,487,39,1
1022,516,0,487,39,1
1022,516,0,487,39,1
1022,516,0,487,39,1
1022,516,0,487,39,1
1022,516,0,487,39,1
1022,513,0,498,39,1
1022,513,0,498,39,1
1022,513,0,498,39,1
1022,513,0,498,39,1
1022,513,0,498,39,1
1022,514,0,496,39,1
1022,514,0,496,39,1
1022,514,0,496,39,1
1022,514,0,496,39,1
1022,514,0,496,39,1
1022,514,0,496,39,1
1022,514,0,496,39,1
1022,511,0,497,39,1
1022,511,0,497,39,1
1022,511,0,497,39,1
1022,511,0,497,39,1
1022,511,0,497,39,1
1022,511,0,497,39,1
1022,511,0,497,39,1
1022,511,0,497,39,1
1022,511,0,497,39,1
1022,511,0,497,39,1
1022,511,0,497,39,1
1022,511,0,497,39,1
1022,513,0,500,39,1
1022,513,0,500,39,1
1022,513,0,500,39,1
1022,513,0,500,39,1
1022,513,0,500,39,1
1022,513,0,500,39,1
1022,512,0,499,39,1
1022,512,0,499,39,1
1022,512,0,499,39,1
1022,512,0,499,39,1
1022,512,0,499,39,1
1022,512,0,499,39,1
1022,512,0,499,39,1
1022,512,0,499,39,1
1022,511,0,499,39,1
1022,511,0,499,39,1
1022,511,0,499,39,1
1022,512,0,482,39,1
1022,512,0,482,39,1
1022,512,0,482,39,1
1022,512,0,482,39,1
1022,512,0,482,39,1
1022,512,0,482,39,1
1022,512,0,482,39,1
1022,512,0,482,39,1
1022,512,0,482,39,1
1022,512,0,482,39,1
1022,513,0,512,39,1
1022,513,0,512,39,1
1022,513,0,512,39,1
1022,510,0,498,39,1
1022,510,0,498,39,1
1022,510,0,498,39,1
1022,510,0,498,39,1
1022,510,0,498,39,1
1022,510,0,498,39,1
1022,510,0,498,39,1
1022,510,0,498,39,1
1022,513,0,506,39,1
1022,513,0,506,39,1
1022,513,0,506,39,1
1022,513,0,506,39,1
1022,513,0,506,39,1
1022,513,0,506,39,1
1022,513,0,506,39,1
1022,514,0,494,39,1
1022,514,0,494,39,1
1022,514,0,494,39,1
1022,510,0,498,39,1
1022,510,0,498,39,1
1022,510,0,498,39,1
1022,510,0,498,39,1
1022,510,0,498,39,1
1022,510,0,498,39,1
1022,512,0,504,39,1
1022,512,0,504,39,1
1022,512,0,504,39,1
1022,512,0,504,39,1
1022,512,0,504,39,1
1022,513,0,490,39,1
1022,513,0,490,39,1
1022,513,0,490,39,1
1022,513,0,490,39,1
1022,513,0,490,39,1
1022,513,0,490,39,1
1022,513,0,490,39,1
1022,510,0,492,39,1
1022,510,0,492,39,1
1022,510,0,492,39,1
1022,510,0,492,39,1
1022,510,0,492,39,1
1022,511,0,499,39,1
1022,511,0,499,39,1
1022,511,0,499,39,1
1022,511,0,499,39,1
1022,511,0,499,39,1
1022,511,0,499,39,1
1022,511,0,499,39,1
1022,514,0,499,39,1
1022,514,0,499,39,1
1022,514,0,499,39,1
1022,514,0,499,39,1
1022,514,0,499,39,1
1022,514,0,499,39,1
1022,512,0,504,39,1
1022,512,0,504,39,1
1022,512,0,504,39,1
1022,512,0,504,39,1
1022,512,0,504,39,1
1022,512,0,504,39,1
1022,511,0,499,39,1
1022,511,0,499,39,1
1022,511,0,499,39,1
1022,511,0,499,39,1
1022,511,0,499,39,1
1022,515,0,495,39,1
1022,515,0,495,39,1
1022,515,0,495,39,1
1022,515,0,495,39,1
1022,515,0,495,39,1
1022,515,0,495,39,1
1022,515,0,495,39,1
1022,512,0,495,39,1
1022,512,0,495,39,1
1022,512,0,495,39,1
1022,512,0,495,39,1
1022,512,0,495,39,1
1022,512,0,498,39,1
1022,512,0,498,39,1
1022,512,0,498,39,1
1022,512,0,498,39,1
1022,512,0,498,39,1
1022,512,0,498,39,1
1022,512,0,502,39,1
1022,512,0,502,39,1
1022,512,0,502,39,1
1022,512,0,502,39,1
1022,512,0,502,39,1
1022,512,0,502,39,1
1022,512,0,502,39,1
1022,512,0,502,39,1
1022,514,0,490,39,1
1022,514,0,490,39,1
1022,514,0,490,39,1
1022,514,0,490,39,1
1022,514,0,490,39,1
1022,514,0,490,39,1
1022,512,0,491,39,1
1022,512,0,491,39,1
1022,512,0,491,39,1
1022,512,0,491,39,1
1022,512,0,491,39,1
1022,512,0,497,39,1
1022,512,0,497,39,1
1022,512,0,497,39,1
1022,512,0,497,39,1
1022,512,0,497,39,1
1022,512,0,497,39,1
1022,513,0,495,39,1
1022,513,0,495,39,1
1022,513,0,495,39,1
1022,513,0,495,39,1
1022,513,0,495,39,1
1022,513,0,495,39,1
1022,512,0,495,39,1
1022,512,0,495,39,1
1022,512,0,495,39,1
1022,512,0,495,39,1
1022,512,0,495,39,1
1022,512,0,495,39,1
1022,515,0,494,39,1
1022,515,0,494,39,1
1022,515,0,494,39,1
1022,515,0,494,39,1
1022,515,0,494,39,1
1022,515,0,494,39,1
1022,510,0,497,39,1
1022,510,0,497,39,1
1022,510,0,497,39,1
1022,510,0,497,39,1
1022,510,0,497,39,1
1022,510,0,497,39,1
1022,510,0,497,39,1
1022,509,0,496,39,1
1022,509,0,496,39,1
1022,509,0,496,39,1
1022,509,0,496,39,1
1022,509,0,496,39,1
1022,513,0,508,39,1
1022,513,0,508,39,1
1022,513,0,508,39,1
1022,513,0,508,39,1
1022,513,0,508,39,1
1022,513,0,508,39,1
1022,515,0,492,39,1
1022,515,0,492,39,1
1022,515,0,492,39,1
1022,515,0,492,39,1
1022,515,0,492,39,1
1022,511,0,489,39,1
1022,511,0,489,39,1
1022,511,0,489,39,1
1022,511,0,489,39,1
1022,511,0,489,39,1
1022,511,0,489,39,1
1022,511,0,489,39,1
1022,510,0,495,39,1
1022,510,0,495,39,1
1022,510,0,495,39,1
1022,510,0,495,39,1
1022,510,0,495,39,1
1022,510,0,495,39,1
1022,513,0,487,39,1
1022,513,0,487,39,1
1022,513,0,487,39,1
1022,513,0,487,39,1
1022,513,0,487,39,1
1022,513,0,487,39,1
1022,513,0,487,39,1
1022,513,0,498,39,1
1022,513,0,498,39,1
1022,513,0,498,39,1
1022,513,0,498,39,1
1022,513,0,498,39,1
1022,513,0,498,39,1
1022,511,0,505,39,1
1022,511,0,505,39,1
1022,511,0,505,39,1
1022,511,0,505,39,1
1022,511,0,505,39,1
1022,513,0,511,39,1
1022,513,0,511,39,1
1022,513,0,511,39,1
1022,513,0,511,39,1
1022,513,0,511,39,1
1022,513,0,511,39,1
1022,513,0,511,39,1
1022,510,0,493,39,1
1022,510,0,493,39,1
1022,510,0,493,39,1
1022,510,0,493,39,1
1022,510,0,493,39,1
1022,511,0,492,39,1
1022,511,0,492,39,1
1022,511,0,492,39,1
1022,511,0,492,39,1
1022,511,0,492,39,1
1022,511,0,492,39,1
1022,511,0,492,39,1
1022,512,0,498,39,1
1022,512,0,498,39,1
1022,512,0,498,39,1
1022,512,0,498,39,1
1022,512,0,498,39,1
1022,512,0,498,39,1
1022,512,0,498,39,1
1022,513,0,502,39,1
1022,513,0,502,39,1
1022,513,0,502,39,1
1022,513,0,502,39,1
1022,513,0,502,39,1
1022,513,0,502,39,1
1022,513,0,502,39,1
1022,515,0,497,39,1
1022,515,0,497,39,1
1022,515,0,497,39,1
1022,515,0,497,39,1
1022,511,0,498,39,1
1022,511,0,498,39,1
1022,511,0,498,39,1
1022,511,0,498,39,1
1022,511,0,498,39,1
1022,510,0,503,39,1
1022,510,0,503,39,1
1022,510,0,503,39,1
1022,510,0,503,39,1
1022,510,0,503,39,1
1022,510,0,503,39,1
1022,510,0,503,39,1
1022,510,0,503,39,1
1022,510,0,503,39,1
1022,510,0,499,39,1
1022,510,0,499,39,1
1022,510,0,499,39,1
1022,510,0,499,39,1
1022,510,0,499,39,1
1022,510,0,499,39,1
1022,512,0,507,39,1
1022,512,0,507,39,1
1022,512,0,507,39,1
1022,513,0,490,39,1
1022,513,0,490,39,1
1022,513,0,490,39,1
1022,513,0,490,39,1
1022,513,0,490,39,1
1022,513,0,490,39,1
1022,513,0,492,39,1
1022,513,0,492,39,1
1022,513,0,492,39,1
1022,513,0,492,39,1
1022,513,0,492,39,1
1022,513,0,492,39,1
1022,513,0,504,39,1
1022,513,0,504,39,1
1022,513,0,504,39,1
1022,513,0,504,39,1
1022,513,0,504,39,1
1022,513,0,504,39,1
1022,511,0,504,39,1
1022,511,0,504,39,1
1022,511,0,504,39,1
1022,511,0,504,39,1
1022,511,0,504,39,1
1022,511,0,504,39,1
1022,512,0,499,39,1
1022,512,0,499,39,1
1022,512,0,499,39,1
1022,512,0,499,39,1
1022,512,0,499,39,1
1022,512,0,499,39,1
1022,513,0,497,39,1
1022,513,0,497,39,1
1022,513,0,497,39,1
1022,513,0,497,39,1
1022,513,0,497,39,1
1022,512,0,500,39,1
1022,512,0,500,39,1
1022,512,0,500,39,1
1022,512,0,500,39,1
1022,512,0,500,39,1
1022,512,0,500,39,1
1022,512,0,500,39,1
1022,515,0,501,39,1
1022,515,0,501,39,1
1022,515,0,501,39,1
1022,515,0,501,39,1
1022,515,0,501,39,1
1022,515,0,501,39,1
1022,514,0,503,39,1
1022,514,0,503,39,1
1022,514,0,503,39,1
1022,514,0,503,39,1
1022,514,0,503,39,1
1022,514,0,503,39,1
1022,511,0,488,39,1
1022,511,0,488,39,1
1022,511,0,488,39,1
1022,511,0,488,39,1
1022,511,0,488,39,1
1022,511,0,488,39,1
1022,511,0,488,39,1
1022,511,0,488,39,1
1022,511,0,488,39,1
1022,512,0,498,39,1
1022,512,0,498,39,1
1022,512,0,491,39,1
1022,512,0,491,39,1
1022,512,0,491,39,1
1022,512,0,491,39,1
1022,512,0,491,39,1
1022,512,0,491,39,1
1022,512,0,491,39,1
1022,512,0,491,39,1
970,511,0,495,39,1
970,511,0,495,39,1
970,511,0,495,39,1
970,511,0,495,39,1
970,511,0,495,39,1
970,511,0,495,39,1
970,511,0,495,39,1
970,511,0,495,39,1
899,513,0,506,39,1
899,513,0,506,39,1
899,513,0,506,39,1
899,513,0,506,39,1
810,512,0,500,39,1
810,512,0,500,39,1
810,512,0,500,39,1
810,512,0,500,39,1
810,512,0,500,39,1
767,513,0,489,39,1
767,513,0,489,39,1
767,513,0,489,39,1
767,513,0,489,39,1
767,513,0,489,39,1
767,513,0,489,39,1
767,513,0,489,39,1
767,513,0,489,39,1
767,513,0,489,39,1
693,514,0,509,39,1
693,514,0,509,39,1
693,514,0,509,39,1
693,514,0,509,39,1
647,508,0,494,39,1
647,508,0,494,39,1
647,508,0,494,39,1
647,508,0,494,39,1
647,508,0,494,39,1
617,512,0,491,39,1
617,512,0,491,39,1
617,512,0,491,39,1
617,512,0,491,39,1
617,512,0,491,39,1
617,512,0,491,39,1
568,512,0,488,39,1
568,512,0,488,39,1
568,512,0,488,39,1
568,512,0,488,39,1
568,512,0,488,39,1
568,512,0,488,39,1
507,512,0,508,39,1
507,512,0,508,39,1
507,512,0,508,39,1
507,512,0,508,39,1
507,512,0,508,39,1
466,512,0,483,39,1
466,512,0,483,39,1
466,512,0,483,39,1
466,512,0,483,39,1
466,512,0,483,39,1
466,512,0,483,39,1
466,512,0,483,39,1
406,510,0,503,39,1
406,510,0,503,39,1
406,510,0,503,39,1
406,510,0,503,39,1
406,510,0,503,39,1
406,510,0,503,39,1
352,516,0,508,39,1
352,516,0,508,39,1
352,516,0,508,39,1
352,516,0,508,39,1
352,516,0,508,39,1
352,516,0,508,39,1
303,511,0,499,39,1
303,511,0,499,39,1
303,511,0,499,39,1
303,511,0,499,39,1
303,511,0,499,39,1
303,511,0,499,39,1
303,511,0,499,39,1
303,511,0,499,39,1
303,511,0,499,39,1
265,513,0,496,39,1
265,513,0,496,39,1
265,513,0,496,39,1
180,515,0,511,39,1
180,515,0,511,39,1
180,515,0,511,39,1
180,515,0,511,39,1
180,515,0,511,39,1
180,515,0,511,39,1
136,512,0,491,39,1
136,512,0,491,39,1
136,512,0,491,39,1
136,512,0,491,39,1
136,512,0,491,39,1
136,512,0,491,39,1
94,510,0,497,39,1
94,510,0,497,39,1
94,510,0,497,39,1
94,510,0,497,39,1
94,510,0,497,39,1
94,510,0,497,39,1
37,515,0,494,39,1
37,515,0,494,39,1
37,515,0,494,39,1
37,515,0,494,39,1
37,515,0,494,39,1
37,515,0,494,39,1
51,513,0,495,39,1
51,513,0,495,39,1
51,513,0,495,39,1
51,513,0,495,39,1
51,513,0,495,39,1
51,513,0,495,39,1
51,513,0,495,39,1
51,513,0,495,39,1
51,513,0,495,39,1
0,513,0,505,39,1
0,513,0,505,39,1
0,513,0,505,39,1
0,510,0,504,39,1
0,510,0,504,39,1
0,510,0,504,39,1
0,510,0,504,39,1
0,510,0,504,39,1
0,510,0,504,39,1
0,509,0,516,39,1
0,509,0,516,39,1
0,509,0,516,39,1
0,509,0,516,39,1
0,509,0,516,39,1
0,509,0,516,39,1
0,513,0,492,39,1
0,513,0,492,39,1
0,513,0,492,39,1
0,513,0,492,39,1
0,513,0,492,39,1
0,513,0,492,39,1
0,513,0,507,39,1
0,513,0,507,39,1
0,513,0,507,39,1
0,513,0,507,39,1
0,513,0,507,39,1
0,512,0,502,39,1
0,512,0,502,39,1
0,512,0,502,39,1
0,512,0,502,39,1
0,512,0,502,39,1
0,512,0,502,39,1
0,512,0,502,39,1
0,513,0,492,39,1
0,513,0,492,39,1
0,513,0,492,39,1
0,513,0,492,39,1
0,513,0,492,39,1
0,515,0,489,39,1
0,515,0,489,39,1
0,515,0,489,39,1
0,515,0,489,39,1
0,515,0,489,39,1
0,515,0,489,39,1
0,515,0,489,39,1
0,515,0,489,39,1
0,512,0,509,39,1
0,512,0,509,39,1
0,512,0,509,39,1
0,512,0,509,39,1
0,512,0,509,39,1
0,512,0,513,39,1
0,512,0,513,39,1
0,512,0,513,39,1
0,512,0,513,39,1
0,512,0,513,39,1
0,512,0,513,39,1
0,512,0,497,39,1
0,512,0,497,39,1
0,512,0,497,39,1
0,512,0,497,39,1
0,512,0,497,39,1
0,512,0,497,39,1
0,512,0,497,39,1
0,511,0,496,39,1
0,511,0,496,39,1
0,511,0,496,39,1
0,511,0,496,39,1
0,511,0,496,39,1
0,511,0,497,39,1
0,511,0,497,39,1
0,511,0,497,39,1
0,511,0,497,39,1
0,511,0,497,39,1
0,511,0,497,39,1
0,513,0,504,39,1
0,513,0,504,39,1
0,513,0,504,39,1
0,513,0,504,39,1
0,513,0,504,39,1
0,513,0,504,39,1
0,513,0,500,39,1
0,513,0,500,39,1
0,513,0,500,39,1
0,513,0,500,39,1
0,513,0,500,39,1
0,513,0,500,39,1
0,513,0,500,39,1
0,513,0,500,39,1
0,515,0,504,39,1
0,515,0,504,39,1
0,515,0,504,39,1
0,511,0,493,39,1
0,511,0,493,39,1
0,511,0,493,39,1
0,511,0,493,39,1
0,511,0,493,39,1
0,511,0,493,39,1
0,511,0,493,39,1
0,514,0,513,39,1
0,514,0,513,39,1
0,514,0,513,39,1
0,514,0,513,39,1
0,514,0,513,39,1
0,514,0,513,39,1
0,511,0,504,39,1
0,511,0,504,39,1
0,511,0,504,39,1
0,511,0,504,39,1
0,511,0,504,39,1
0,511,0,504,39,1
0,512,0,493,39,1
0,512,0,493,39,1
0,512,0,493,39,1
0,512,0,493,39,1
0,512,0,493,39,1
0,512,0,493,39,1
0,510,0,501,39,1
0,510,0,501,39,1
0,510,0,501,39,1
0,510,0,501,39,1
0,510,0,501,39,1
0,513,0,501,39,1
0,513,0,501,39,1
0,513,0,501,39,1
0,513,0,501,39,1
0,513,0,501,39,1
0,513,0,501,39,1
0,513,0,501,39,1
0,512,0,499,39,1
0,512,0,499,39,1
0,512,0,499,39,1
0,512,0,499,39,1
0,512,0,499,39,1
0,512,0,499,39,1
0,512,0,499,39,1
0,512,0,504,39,1
0,512,0,504,39,1
0,512,0,504,39,1
0,512,0,504,39,1
0,512,0,504,39,1
0,513,0,501,39,1
0,513,0,501,39,1
0,513,0,501,39,1
0,513,0,501,39,1
0,513,0,501,39,1
0,513,0,501,39,1
0,513,0,486,39,1
0,513,0,486,39,1
0,513,0,486,39,1
0,513,0,486,39,1
0,513,0,486,39,1
0,513,0,486,39,1
0,513,0,486,39,1
0,512,0,489,39,1
0,512,0,489,39,1
0,512,0,489,39,1
0,512,0,489,39,1
0,514,0,492,39,1
0,514,0,492,39,1
0,514,0,492,39,1
0,514,0,492,39,1
0,514,0,492,39,1
0,514,0,492,39,1
0,514,0,492,39,1
0,513,0,499,39,1
0,513,0,499,39,1
0,513,0,499,39,1
0,513,0,499,39,1
0,513,0,499,39,1
0,513,0,499,39,1
0,513,0,499,39,1
0,513,0,491,39,1
0,513,0,491,39,1
0,513,0,491,39,1
0,513,0,491,39,1
0,513,0,491,39,1
0,512,0,487,39,1
0,512,0,487,39,1
0,512,0,487,39,1
0,512,0,487,39,1
0,512,0,487,39,1
0,512,0,487,39,1
0,514,0,498,39,1
0,514,0,498,39,1
0,514,0,498,39,1
0,514,0,498,39,1
0,514,0,498,39,1
0,514,0,498,39,1
0,514,0,498,39,1
0,510,0,496,39,1
0,510,0,496,39,1
0,510,0,496,39,1
0,510,0,496,39,1
0,510,0,496,39,1
0,510,0,496,39,1
0,510,0,496,39,1
0,510,0,496,39,1
0,512,0,492,39,1
0,512,0,492,39,1
0,512,0,492,39,1
0,514,0,511,39,1
0,514,0,511,39,1
0,514,0,511,39,1
0,514,0,511,39,1
0,514,0,511,39,1
0,512,0,503,39,1
0,512,0,503,39,1
0,512,0,503,39,1
0,512,0,503,39,1
0,512,0,503,39,1
0,512,0,503,39,1
0,512,0,503,39,1
0,512,0,504,39,1
0,512,0,504,39,1
0,512,0,504,39,1
0,512,0,504,39,1
0,512,0,504,39,1
0,512,0,504,39,1
0,514,0,500,39,1
0,514,0,500,39,1
0,514,0,500,39,1
0,514,0,500,39,1
0,514,0,500,39,1
0,514,0,500,39,1
0,512,0,499,39,1
0,512,0,499,39,1
0,512,0,499,39,1
0,512,0,499,39,1
0,512,0,499,39,1
0,512,0,499,39,1
0,512,0,499,39,1
0,512,0,499,39,1
0,512,0,499,39,1
0,512,0,508,39,1
0,512,0,508,39,1
0,512,0,508,39,1
0,514,0,496,39,1
0,514,0,496,39,1
0,514,0,496,39,1
0,514,0,496,39,1
0,514,0,496,39,1
0,514,0,496,39,1
0,512,0,518,39,1
0,512,0,518,39,1
0,512,0,518,39,1
0,512,0,518,39,1
0,512,0,518,39,1
0,511,0,492,39,1
0,511,0,492,39,1
0,511,0,492,39,1
0,511,0,492,39,1
0,511,0,492,39,1
0,511,0,492,39,1
0,512,0,492,39,1
0,512,0,492,39,1
0,512,0,492,39,1
0,512,0,492,39,1
0,512,0,492,39,1
0,512,0,492,39,1
0,512,0,492,39,1
0,512,0,506,39,1
0,512,0,506,39,1
0,512,0,506,39,1
0,512,0,506,39,1
0,512,0,506,39,1
0,512,0,506,39,1
0,515,0,510,39,1
0,515,0,510,39,1
0,515,0,510,39,1
0,515,0,510,39,1
0,515,0,510,39,1
0,515,0,510,39,1
0,512,0,501,39,1
0,512,0,501,39,1
0,512,0,501,39,1
0,512,0,501,39,1
0,512,0,501,39,1
0,511,0,498,39,1
0,511,0,498,39,1
0,511,0,498,39,1
0,511,0,498,39,1
0,511,0,498,39,1
0,511,0,498,39,1
0,511,0,498,39,1
0,516,0,508,39,1
0,516,0,508,39,1
0,516,0,508,39,1
0,516,0,508,39,1
0,516,0,508,39,1
0,516,0,508,39,1
0,514,0,507,39,1
0,514,0,507,39,1
0,514,0,507,39,1
0,514,0,507,39,1
0,514,0,507,39,1
0,514,0,507,39,1
0,514,0,499,39,1
0,514,0,499,39,1
0,514,0,499,39,1
0,514,0,499,39,1
0,514,0,499,39,1
0,514,0,511,39,1
0,514,0,511,39,1
0,514,0,511,39,1
0,514,0,511,39,1
0,514,0,511,39,1
0,514,0,511,39,1
0,515,0,505,39,1
0,515,0,505,39,1
0,515,0,505,39,1
0,515,0,505,39,1
0,515,0,505,39,1
0,515,0,505,39,1
0,515,0,505,39,1
0,512,0,498,39,1
0,512,0,498,39,1
0,512,0,498,39,1
0,512,0,498,39,1
0,512,0,498,39,1
0,513,0,499,39,1
0,513,0,499,39,1
0,513,0,499,39,1
0,513,0,499,39,1
0,513,0,499,39,1
0,513,0,499,39,1
0,513,0,499,39,1
0,510,0,501,39,1
0,510,0,501,39,1
0,510,0,501,39,1
0,510,0,501,39,1
0,510,0,501,39,1
0,510,0,501,39,1
0,512,0,499,39,1
0,512,0,499,39,1
0,512,0,499,39,1
0,512,0,499,39,1
0,512,0,499,39,1
0,512,0,499,39,1
0,512,0,506,39,1
0,512,0,506,39,1
0,512,0,506,39,1
0,512,0,506,39,1
0,512,0,506,39,1
0,512,0,506,39,1
0,514,0,497,39,1
0,514,0,497,39,1
0,514,0,497,39,1
0,514,0,497,39,1
0,514,0,497,39,1
0,514,0,497,39,1
0,514,0,497,39,1
0,512,0,504,39,1
0,512,0,504,39,1
0,512,0,504,39,1
0,512,0,504,39,1
0,512,0,504,39,1
0,511,0,500,39,1
0,511,0,500,39,1
0,511,0,500,39,1
0,511,0,500,39,1
0,511,0,500,39,1
0,511,0,500,39,1
0,511,0,500,39,1
0,512,0,508,39,1
0,512,0,508,39,1
0,512,0,508,39,1
0,512,0,508,39,1
0,512,0,508,39,1
0,513,0,506,39,1
0,513,0,506,39,1
0,513,0,506,39,1
0,513,0,506,39,1
0,513,0,506,39,1
0,513,0,506,39,1
0,513,0,506,39,1
0,515,0,500,39,1
0,515,0,500,39,1
0,515,0,500,39,1
0,515,0,500,39,1
0,515,0,500,39,1
0,511,0,505,39,1
0,511,0,505,39,1
0,511,0,505,39,1
0,511,0,505,39,1
0,511,0,505,39,1
0,511,0,505,39,1
0,512,0,501,39,1
0,512,0,501,39,1
0,512,0,501,39,1
0,512,0,501,39,1
0,512,0,501,39,1
0,512,0,501,39,1
0,512,0,518,39,1
0,512,0,518,39,1
0,512,0,518,39,1
0,512,0,518,39,1
0,512,0,518,39,1
0,512,0,518,39,1
0,510,0,497,39,1
0,510,0,497,39,1
0,510,0,497,39,1
0,510,0,497,39,1
0,510,0,497,39,1
0,510,0,497,39,1
0,513,0,512,39,1
0,513,0,512,39,1
0,513,0,512,39,1
0,513,0,512,39,1
0,513,0,512,39,1
0,510,0,509,39,1
0,510,0,509,39,1
0,510,0,509,39,1
0,510,0,509,39,1
0,510,0,509,39,1
0,510,0,509,39,1
0,512,0,513,39,1
0,512,0,513,39,1
0,512,0,513,39,1
0,512,0,513,39,1
0,512,0,513,39,1
0,512,0,513,39,1
0,512,0,513,39,1
0,510,0,513,39,1
0,510,0,513,39,1
0,510,0,513,39,1
0,510,0,513,39,1
0,510,0,513,39,1
0,510,0,513,39,1
0,510,0,513,39,1
0,510,0,513,39,1
0,510,0,513,39,1
0,510,0,509,39,1
0,510,0,509,39,1
0,510,0,509,39,1
0,510,0,504,39,1
0,510,0,504,39,1
0,510,0,504,39,1
0,510,0,504,39,1
0,510,0,504,39,1
0,512,0,527,39,1
0,512,0,527,39,1
0,512,0,527,39,1
0,512,0,527,39,1
0,512,0,527,39,1
0,512,0,527,39,1
0,512,0,527,39,1
0,515,0,499,39,1
0,515,0,499,39,1
0,515,0,499,39,1
0,515,0,499,39,1
0,515,0,499,39,1
0,515,0,499,39,1
0,512,0,510,39,1
0,512,0,510,39,1
0,512,0,510,39,1
0,512,0,510,39,1
0,512,0,510,39,1
0,512,0,510,39,1
0,512,0,510,39,1
0,514,0,502,39,1
0,514,0,502,39,1
0,514,0,502,39,1
0,514,0,502,39,1
0,514,0,502,39,1
0,511,0,516,39,1
0,511,0,516,39,1
0,511,0,516,39,1
0,511,0,516,39,1
0,511,0,516,39,1
0,511,0,516,39,1
0,512,0,507,39,1
0,512,0,507,39,1
0,512,0,507,39,1
0,512,0,507,39,1
0,512,0,507,39,1
0,512,0,507,39,1
0,512,0,507,39,1
0,512,0,500,39,1
0,512,0,500,39,1
0,512,0,500,39,1
0,512,0,500,39,1
0,512,0,500,39,1
0,513,0,516,39,1
0,513,0,516,39,1
0,513,0,516,39,1
0,513,0,516,39,1
0,513,0,516,39,1
0,513,0,516,39,1
0,513,0,505,39,1
0,513,0,505,39,1
0,513,0,505,39,1
0,513,0,505,39,1
0,513,0,505,39,1
0,513,0,505,39,1
0,509,0,517,39,1
0,509,0,517,39,1
0,509,0,517,39,1
0,509,0,517,39,1
0,509,0,517,39,1
0,509,0,517,39,1
0,511,0,508,39,1
0,511,0,508,39,1
0,511,0,508,39,1
0,511,0,508,39,1
0,511,0,508,39,1
0,511,0,508,39,1
0,511,0,519,39,1
0,511,0,519,39,1
0,511,0,519,39,1
0,511,0,519,39,1
0,511,0,519,39,1
0,513,0,520,39,1
0,513,0,520,39,1
0,513,0,520,39,1
0,513,0,520,39,1
0,513,0,520,39,1
0,513,0,520,39,1
0,513,0,520,39,1
0,516,0,521,39,1
0,516,0,521,39,1
0,516,0,521,39,1
0,516,0,521,39,1
0,516,0,521,39,1
0,513,0,500,39,1
0,513,0,500,39,1
0,513,0,500,39,1
0,513,0,500,39,1
0,513,0,500,39,1
0,513,0,500,39,1
0,513,0,500,39,1
0,512,0,517,39,1
0,512,0,517,39,1
0,512,0,517,39,1
0,512,0,517,39,1
0,512,0,517,39,1
0,513,0,516,39,1
0,513,0,516,39,1
0,513,0,516,39,1
0,513,0,516,39,1
0,513,0,516,39,1
0,513,0,516,39,1
0,513,0,516,39,1
0,512,0,519,39,1
0,512,0,519,39,1
0,512,0,519,39,1
0,512,0,519,39,1
0,512,0,519,39,1
0,511,0,523,39,1
0,511,0,523,39,1
0,511,0,523,39,1
0,511,0,523,39,1
0,511,0,523,39,1
0,511,0,523,39,1
0,511,0,523,39,1
0,513,0,531,39,1
0,513,0,531,39,1
0,513,0,531,39,1
0,513,0,531,39,1
0,513,0,531,39,1
0,511,0,524,39,1
0,511,0,524,39,1
0,511,0,524,39,1
0,511,0,524,39,1
0,511,0,524,39,1
0,511,0,524,39,1
0,511,0,524,39,1
0,508,0,526,39,1
0,508,0,526,39,1
0,508,0,526,39,1
0,508,0,526,39,1
0,508,0,526,39,1
0,508,0,526,39,1
0,508,0,526,39,1
0,508,0,526,39,1
0,508,0,526,39,1
0,511,0,517,39,1
0,511,0,517,39,1
0,511,0,517,39,1
0,511,0,517,39,1
0,511,0,515,39,1
0,511,0,515,39,1
0,511,0,515,39,1
0,511,0,515,39,1
0,511,0,515,39,1
0,514,0,522,39,1
0,514,0,522,39,1
0,514,0,522,39,1
0,514,0,522,39,1
0,514,0,522,39,1
0,509,0,527,39,1
0,509,0,527,39,1
0,509,0,527,39,1
0,509,0,527,39,1
0,509,0,527,39,1
0,509,0,527,39,1
0,513,0,506,39,1
0,513,0,506,39,1
0,513,0,506,39,1
0,513,0,506,39,1
0,513,0,506,39,1
0,513,0,506,39,1
0,513,0,506,39,1
0,513,0,516,39,1
0,513,0,516,39,1
0,513,0,516,39,1
0,513,0,516,39,1
0,513,0,516,39,1
0,513,0,516,39,1
0,513,0,516,39,1
0,513,0,516,39,1
0,513,0,516,39,1
0,513,0,523,39,1
0,513,0,523,39,1
0,513,0,523,39,1
0,513,0,523,39,1
0,513,0,515,39,1
0,513,0,515,39,1
0,513,0,515,39,1
0,513,0,515,39,1
0,513,0,515,39,1
0,513,0,527,39,1
0,513,0,527,39,1
0,513,0,527,39,1
0,513,0,527,39,1
0,513,0,527,39,1
0,513,0,529,39,1
0,513,0,529,39,1
0,513,0,529,39,1
0,513,0,529,39,1
0,513,0,529,39,1
0,513,0,529,39,1
0,511,0,519,39,1
0,511,0,519,39,1
0,511,0,519,39,1
0,511,0,519,39,1
0,511,0,519,39,1
0,511,0,519,39,1
0,514,0,514,39,1
0,514,0,514,39,1
0,514,0,514,39,1
0,514,0,514,39,1
0,514,0,514,39,1
0,514,0,514,39,1
0,514,0,514,39,1
0,511,0,523,39,1
0,511,0,523,39,1
0,511,0,523,39,1
0,511,0,523,39,1
0,511,0,523,39,1
0,511,0,523,39,1
0,513,0,532,39,1
0,513,0,532,39,1
0,513,0,532,39,1
0,513,0,532,39,1
0,513,0,532,39,1
0,511,0,516,39,1
0,511,0,516,39,1
0,511,0,516,39,1
0,511,0,516,39,1
0,511,0,516,39,1
0,511,0,516,39,1
0,511,0,516,39,1
0,508,0,536,39,1
0,508,0,536,39,1
0,508,0,536,39,1
0,508,0,536,39,1
0,508,0,536,39,1
0,508,0,536,39,1
0,514,0,506,39,1
0,514,0,506,39,1
0,514,0,506,39,1
0,514,0,506,39,1
0,514,0,506,39,1
0,514,0,506,39,1
0,514,0,506,39,1
0,513,0,536,39,1
0,513,0,536,39,1
0,513,0,536,39,1
0,513,0,536,39,1
0,513,0,536,39,1
0,512,0,543,39,1
0,512,0,543,39,1
0,512,0,543,39,1
0,512,0,543,39,1
0,512,0,543,39,1
0,512,0,543,39,1
0,508,0,534,39,1
0,508,0,534,39,1
0,508,0,534,39,1
0,508,0,534,39,1
0,508,0,534,39,1
0,510,0,518,39,1
0,510,0,518,39,1
0,510,0,518,39,1
0,510,0,518,39,1
0,510,0,518,39,1
0,510,0,518,39,1
0,510,0,518,39,1
0,512,0,533,39,1
0,512,0,533,39,1
0,512,0,533,39,1
0,512,0,533,39,1
0,512,0,533,39,1
0,512,0,533,39,1
0,513,0,519,39,1
0,513,0,519,39,1
0,513,0,519,39,1
0,513,0,519,39,1
0,513,0,519,39,1
0,513,0,519,39,1
0,511,0,529,39,1
0,511,0,529,39,1
0,511,0,529,39,1
0,511,0,529,39,1
0,511,0,529,39,1
0,513,0,515,39,1
0,513,0,515,39,1
0,513,0,515,39,1
0,513,0,515,39,1
0,513,0,515,39,1
0,513,0,515,39,1
0,513,0,515,39,1
0,512,0,524,39,1
0,512,0,524,39,1
0,512,0,524,39,1
0,512,0,524,39,1
0,512,0,524,39,1
0,512,0,524,39,1
0,512,0,524,39,1
0,511,0,533,39,1
0,511,0,533,39,1
0,511,0,533,39,1
0,511,0,533,39,1
0,511,0,533,39,1
0,506,0,513,39,1
0,506,0,513,39,1
0,506,0,513,39,1
0,506,0,513,39,1
0,506,0,513,39,1
0,506,0,513,39,1
0,511,0,516,39,1
0,511,0,516,39,1
0,511,0,516,39,1
0,511,0,516,39,1
0,511,0,516,39,1
0,511,0,516,39,1
0,511,0,516,39,1
0,510,0,522,39,1
0,510,0,522,39,1
0,510,0,522,39,1
0,510,0,522,39,1
0,512,0,530,39,1
0,512,0,530,39,1
0,512,0,530,39,1
0,512,0,530,39,1
0,512,0,530,39,1
0,512,0,530,39,1
0,512,0,530,39,1
0,512,0,528,39,1
0,512,0,528,39,1
0,512,0,528,39,1
0,512,0,528,39,1
0,512,0,528,39,1
0,512,0,528,39,1
0,512,0,528,39,1
0,510,0,517,39,1
0,510,0,517,39,1
0,510,0,517,39,1
0,510,0,517,39,1
0,510,0,517,39,1
0,512,0,515,39,1
0,512,0,515,39,1
0,512,0,515,39,1
0,512,0,515,39,1
0,512,0,515,39,1
0,512,0,515,39,1
0,512,0,515,39,1
0,512,0,527,39,1
0,512,0,527,39,1
0,512,0,527,39,1
0,512,0,527,39,1
0,512,0,527,39,1
0,509,0,527,39,1
0,509,0,527,39,1
0,509,0,527,39,1
0,509,0,527,39,1
0,509,0,527,39,1
0,511,0,537,39,1
0,511,0,537,39,1
0,511,0,537,39,1
0,511,0,537,39,1
0,511,0,537,39,1
0,511,0,537,39,1
0,511,0,537,39,1
0,507,0,526,39,1
0,507,0,526,39,1
0,507,0,526,39,1
0,507,0,526,39,1
0,507,0,526,39,1
0,507,0,526,39,1
0,508,0,523,39,1
0,508,0,523,39,1
0,508,0,523,39,1
0,508,0,523,39,1
0,508,0,523,39,1
0,509,0,541,39,1
0,509,0,541,39,1
0,509,0,541,39,1
0,509,0,541,39,1
0,509,0,541,39,1
0,509,0,541,39,1
0,509,0,541,39,1
0,512,0,520,39,1
0,512,0,520,39,1
0,512,0,520,39,1
0,512,0,520,39,1
0,512,0,520,39,1
0,512,0,520,39,1
0,510,0,544,39,1
0,510,0,544,39,1
0,510,0,544,39,1
0,510,0,544,39,1
0,510,0,544,39,1
0,510,0,544,39,1
0,510,0,544,39,1
0,511,0,521,39,1
0,511,0,521,39,1
0,511,0,521,39,1
0,511,0,521,39,1
0,511,0,521,39,1
0,511,0,534,39,1
0,511,0,534,39,1
0,511,0,534,39,1
0,511,0,534,39,1
0,511,0,534,39,1
0,511,0,534,39,1
0,511,0,534,39,1
0,508,0,519,39,1
0,508,0,519,39,1
0,508,0,519,39,1
0,508,0,519,39,1
0,508,0,519,39,1
0,508,0,525,39,1
0,508,0,525,39,1
0,508,0,525,39,1
0,508,0,525,39,1
0,508,0,525,39,1
0,508,0,525,39,1
0,511,0,520,39,1
0,511,0,520,39,1
0,511,0,520,39,1
0,511,0,520,39,1
0,511,0,520,39,1
0,511,0,520,39,1
0,512,0,538,39,1
0,512,0,538,39,1
0,512,0,538,39,1
0,512,0,538,39,1
0,512,0,538,39,1
0,512,0,538,39,1
0,513,0,519,39,1
0,513,0,519,39,1
0,513,0,519,39,1
0,513,0,519,39,1
0,513,0,519,39,1
0,513,0,519,39,1
0,512,0,522,39,1
0,512,0,522,39,1
0,512,0,522,39,1
0,512,0,522,39,1
0,512,0,522,39,1
0,512,0,522,39,1
0,512,0,524,39,1
0,512,0,524,39,1
0,512,0,524,39,1
0,512,0,524,39,1
0,512,0,524,39,1
0,512,0,544,39,1
0,512,0,544,39,1
0,512,0,544,39,1
0,512,0,544,39,1
0,512,0,544,39,1
0,512,0,544,39,1
0,510,0,524,39,1
0,510,0,524,39,1
0,510,0,524,39,1
0,510,0,524,39,1
0,510,0,524,39,1
0,510,0,524,39,1
0,511,0,528,39,1
0,511,0,528,39,1
0,511,0,528,39,1
0,511,0,528,39,1
0,511,0,528,39,1
0,511,0,528,39,1
0,512,0,519,39,1
0,512,0,519,39,1
0,512,0,519,39,1
0,512,0,519,39,1
0,512,0,519,39,1
0,512,0,519,39,1
0,512,0,519,39,1
0,511,0,526,39,1
0,511,0,526,39,1
0,511,0,526,39,1
0,511,0,526,39,1
0,511,0,526,39,1
0,511,0,526,39,1
0,511,0,526,39,1
0,510,0,534,39,1
0,510,0,534,39,1
0,510,0,534,39,1
0,510,0,534,39,1
0,510,0,534,39,1
0,512,0,534,39,1
0,512,0,534,39,1
0,512,0,534,39,1
0,512,0,534,39,1
0,512,0,534,39,1
0,512,0,534,39,1
0,512,0,534,39,1
0,512,0,531,39,1
0,512,0,531,39,1
0,512,0,531,39,1
0,512,0,531,39,1
0,512,0,531,39,1
0,512,0,531,39,1
0,510,0,537,39,1
0,510,0,537,39,1
0,510,0,537,39,1
0,510,0,537,39,1
0,510,0,537,39,1
0,510,0,537,39,1
0,510,0,537,39,1
0,510,0,537,39,1
0,510,0,537,39,1
0,510,0,537,39,1
0,513,0,543,39,1
0,513,0,543,39,1
0,513,0,543,39,1
0,513,0,543,39,1
0,509,0,518,39,1
0,509,0,518,39,1
0,509,0,518,39,1
0,509,0,526,39,1
0,509,0,526,39,1
0,509,0,526,39,1
0,509,0,526,39,1
0,509,0,526,39,1
0,509,0,526,39,1
0,512,0,525,39,1
0,512,0,525,39,1
0,512,0,525,39,1
0,512,0,525,39,1
0,512,0,525,39,1
0,512,0,539,39,1
0,512,0,539,39,1
0,512,0,539,39,1
0,512,0,539,39,1
0,512,0,539,39,1
0,512,0,539,39,1
0,512,0,539,39,1
0,512,0,539,39,1
0,513,0,524,39,1
0,513,0,524,39,1
0,513,0,524,39,1
0,513,0,524,39,1
0,513,0,524,39,1
0,513,0,524,39,1
0,513,0,524,39,1
0,513,0,524,39,1
0,513,0,524,39,1
0,510,0,534,39,1
0,510,0,534,39,1
0,510,0,534,39,1
0,510,0,534,39,1
0,510,0,534,39,1
0,513,0,523,39,1
0,513,0,523,39,1
0,513,0,523,39,1
0,509,0,537,39,1
0,509,0,537,39,1
0,509,0,537,39,1
0,509,0,537,39,1
0,509,0,537,39,1
0,509,0,537,39,1
0,509,0,537,39,1
0,509,0,537,39,1
0,511,0,528,39,1
0,511,0,528,39,1
0,511,0,528,39,1
0,511,0,528,39,1
0,513,0,515,39,1
0,513,0,515,39,1
0,513,0,515,39,1
0,513,0,515,39,1
0,513,0,515,39,1
0,509,0,536,39,1
0,509,0,536,39,1
0,509,0,536,39,1
0,509,0,536,39,1
0,509,0,536,39,1
0,509,0,536,39,1
0,509,0,536,39,1
0,512,0,532,39,1
0,512,0,532,39,1
0,512,0,532,39,1
0,512,0,532,39,1
0,512,0,532,39,1
0,512,0,532,39,1
0,511,0,521,39,1
0,511,0,521,39,1
0,511,0,521,39,1
0,511,0,521,39,1
0,511,0,521,39,1
0,511,0,521,39,1
0,511,0,539,39,1
0,511,0,539,39,1
0,511,0,539,39,1
0,511,0,539,39,1
0,511,0,539,39,1
0,511,0,539,39,1
0,512,0,535,39,1
0,512,0,535,39,1
0,512,0,535,39,1
0,512,0,535,39,1
0,512,0,535,39,1
0,512,0,535,39,1
0,512,0,527,39,1
0,512,0,527,39,1
0,512,0,527,39,1
0,512,0,527,39,1
0,512,0,527,39,1
0,512,0,527,39,1
0,512,0,527,39,1
0,512,0,527,39,1
0,512,0,527,39,1
0,512,0,527,39,1
0,512,0,527,39,1
0,512,0,519,39,1
0,512,0,519,39,1
0,512,0,519,39,1
0,512,0,519,39,1
0,512,0,519,39,1
0,512,0,519,39,1
0,512,0,519,39,1
0,511,0,524,39,1
0,511,0,524,39,1
0,511,0,524,39,1
0,511,0,524,39,1
0,511,0,524,39,1
0,511,0,524,39,1
0,510,0,523,39,1
0,510,0,523,39,1
0,510,0,523,39,1
0,510,0,523,39,1
0,510,0,523,39,1
0,510,0,523,39,1
0,510,0,523,39,1
0,510,0,523,39,1
0,510,0,523,39,1
0,515,0,524,39,1
0,515,0,524,39,1
0,515,0,524,39,1
0,515,0,524,39,1
0,513,0,531,39,1
0,513,0,531,39,1
0,513,0,531,39,1
0,513,0,531,39,1
0,513,0,531,39,1
0,513,0,531,39,1
0,510,0,529,39,1
0,510,0,529,39,1
0,510,0,529,39,1
0,510,0,529,39,1
0,511,0,542,39,1
0,511,0,542,39,1
0,511,0,542,39,1
0,511,0,542,39,1
0,511,0,542,39,1
0,511,0,542,39,1
0,511,0,542,39,1
0,513,0,523,39,1
0,513,0,523,39,1
0,513,0,523,39,1
0,513,0,523,39,1
0,513,0,523,39,1
0,513,0,523,39,1
0,513,0,523,39,1
0,513,0,523,39,1
0,509,0,529,39,1
0,509,0,529,39,1
0,509,0,529,39,1
0,513,0,511,39,1
0,513,0,511,39,1
0,513,0,511,39,1
0,513,0,511,39,1
0,513,0,511,39,1
0,513,0,511,39,1
0,513,0,511,39,1
0,513,0,516,39,1
0,513,0,516,39,1
0,513,0,516,39,1
0,513,0,516,39,1
0,513,0,516,39,1
0,513,0,516,39,1
0,508,0,526,39,1
0,508,0,526,39,1
0,508,0,526,39,1
0,508,0,526,39,1
0,508,0,526,39,1
0,513,0,518,39,1
0,513,0,518,39,1
0,513,0,518,39,1
0,513,0,518,39,1
0,513,0,518,39,1
0,513,0,518,39,1
0,513,0,518,39,1
0,510,0,528,39,1
0,510,0,528,39,1
0,510,0,528,39,1
0,510,0,528,39,1
0,510,0,528,39,1
0,510,0,528,39,1
0,510,0,530,39,1
0,510,0,530,39,1
0,510,0,530,39,1
0,510,0,530,39,1
0,510,0,530,39,1
0,510,0,530,39,1
0,508,0,524,39,1
0,508,0,524,39,1
0,508,0,524,39,1
0,508,0,524,39,1
0,508,0,524,39,1
0,508,0,524,39,1
0,508,0,524,39,1
0,511,0,527,39,1
0,511,0,527,39,1
0,511,0,527,39,1
0,511,0,527,39,1
0,511,0,527,39,1
0,511,0,524,39,1
0,511,0,524,39,1
0,511,0,524,39,1
0,511,0,524,39,1
0,511,0,524,39,1
0,511,0,524,39,1
0,511,0,522,39,1
0,511,0,522,39,1
0,511,0,522,39,1
0,511,0,522,39,1
0,511,0,522,39,1
0,511,0,522,39,1
0,511,0,534,39,1
0,511,0,534,39,1
0,511,0,534,39,1
0,511,0,534,39,1
0,511,0,534,39,1
0,511,0,534,39,1
0,511,0,534,39,1
0,510,0,529,39,1
0,510,0,529,39,1
0,510,0,529,39,1
0,510,0,529,39,1
0,510,0,529,39,1
0,510,0,529,39,1
0,509,0,520,39,1
0,509,0,520,39,1
0,509,0,520,39,1
0,509,0,520,39,1
0,509,0,520,39,1
0,512,0,528,39,1
0,512,0,528,39,1
0,512,0,528,39,1
0,512,0,528,39,1
0,512,0,528,39,1
0,513,0,528,39,1
0,513,0,528,39,1
0,513,0,528,39,1
0,513,0,528,39,1
0,513,0,528,39,1
0,513,0,528,39,1
0,513,0,528,39,1
0,513,0,528,39,1
0,513,0,524,39,1
0,513,0,524,39,1
0,513,0,524,39,1
0,513,0,524,39,1
0,511,0,521,39,1
0,511,0,521,39,1
0,511,0,521,39,1
0,511,0,521,39,1
0,511,0,521,39,1
0,511,0,521,39,1
0,511,0,521,39,1
0,510,0,526,39,1
0,510,0,526,39,1
0,510,0,526,39,1
0,510,0,526,39,1
0,510,0,526,39,1
0,510,0,526,39,1
0,510,0,526,39,1
0,510,0,526,39,1
0,510,0,518,39,1
0,510,0,518,39,1
0,510,0,518,39,1
0,510,0,518,39,1
0,514,0,527,39,1
0,514,0,527,39,1
0,514,0,527,39,1
0,514,0,527,39,1
0,514,0,527,39,1
0,510,0,514,39,1
0,510,0,514,39,1
0,510,0,514,39,1
0,510,0,514,39,1
0,510,0,514,39,1
0,510,0,514,39,1
0,510,0,514,39,1
0,508,0,513,39,1
0,508,0,513,39,1
0,508,0,513,39,1
0,508,0,513,39,1
0,508,0,513,39,1
0,508,0,513,39,1
0,508,0,513,39,1
0,508,0,513,39,1
0,508,0,513,39,1
0,515,0,517,39,1
0,515,0,517,39,1
0,515,0,517,39,1
0,510,0,520,39,1
0,510,0,520,39,1
0,510,0,520,39,1
0,510,0,520,39,1
0,510,0,520,39,1
0,510,0,520,39,1
0,510,0,520,39,1
0,510,0,520,39,1
0,512,0,529,39,1
0,512,0,529,39,1
0,512,0,529,39,1
0,514,0,531,39,1
0,514,0,531,39,1
0,514,0,531,39,1
0,514,0,531,39,1
0,514,0,531,39,1
0,514,0,531,39,1
0,514,0,531,39,1
0,514,0,531,39,1
0,512,0,535,39,1
0,512,0,535,39,1
0,512,0,535,39,1
0,512,0,535,39,1
0,510,0,541,39,1
0,510,0,541,39,1
0,510,0,541,39,1
0,510,0,541,39,1
0,510,0,541,39,1
0,510,0,541,39,1
0,510,0,541,39,1
0,510,0,541,39,1
0,510,0,541,39,1
0,510,0,541,39,1
0,514,0,528,39,1
0,514,0,528,39,1
0,514,0,528,39,1
0,514,0,528,39,1
0,508,0,522,39,1
0,508,0,522,39,1
0,508,0,522,39,1
0,508,0,522,39,1
0,508,0,522,39,1
0,508,0,522,39,1
0,508,0,522,39,1
0,510,0,515,39,1
0,510,0,515,39,1
0,510,0,515,39,1
0,510,0,515,39,1
0,512,0,519,39,1
0,512,0,519,39,1
0,512,0,519,39,1
0,512,0,519,39,1
0,512,0,519,39,1
0,512,0,519,39,1
0,512,0,519,39,1
0,512,0,519,39,1
0,511,0,511,39,1
0,511,0,511,39,1
0,511,0,511,39,1
0,511,0,511,39,1
58,509,0,512,39,1
58,509,0,512,39,1
58,509,0,512,39,1
58,509,0,512,39,1
58,509,0,512,39,1
58,509,0,512,39,1
317,511,0,537,39,1
317,511,0,537,39,1
317,511,0,537,39,1
317,511,0,537,39,1
317,511,0,537,39,1
317,511,0,537,39,1
317,511,0,537,39,1
503,511,0,519,39,1
503,511,0,519,39,1
503,511,0,519,39,1
503,511,0,519,39,1
503,511,0,519,39,1
700,513,0,517,39,1
700,513,0,517,39,1
700,513,0,517,39,1
700,513,0,517,39,1
700,513,0,517,39,1
923,509,0,524,39,1
923,509,0,524,39,1
923,509,0,524,39,1
923,509,0,524,39,1
923,509,0,524,39,1
923,509,0,524,39,1
923,509,0,524,39,1
1022,511,0,515,39,1
1022,511,0,515,39,1
1022,511,0,515,39,1
1022,511,0,515,39,1
1022,511,0,515,39,1
1022,510,0,518,39,1
1022,510,0,518,39,1
1022,510,0,518,39,1
1022,510,0,518,39,1
1022,510,0,518,39,1
1022,510,0,518,39,1
1022,510,0,518,39,1
1022,511,0,522,39,1
1022,511,0,522,39,1
1022,511,0,522,39,1
1022,511,0,522,39,1
1022,511,0,522,39,1
1022,511,0,522,39,1
1022,511,0,522,39,1
1022,510,0,511,39,1
1022,510,0,511,39,1
1022,510,0,511,39,1
1022,510,0,511,39,1
1022,510,0,511,39,1
1022,510,0,511,39,1
1022,510,0,511,39,1
1022,507,0,532,39,1
1022,507,0,532,39,1
1022,507,0,532,39,1
1022,508,0,517,39,1
1022,508,0,517,39,1
1022,508,0,517,39,1
1022,508,0,517,39,1
1022,508,0,517,39,1
1022,508,0,517,39,1
1022,508,0,517,39,1
1022,513,0,525,38,1
1022,513,0,525,38,1
1022,513,0,525,38,1
1022,513,0,525,38,1
1022,513,0,525,38,1
1022,513,0,525,38,1
1022,513,0,525,38,1
1022,513,0,525,38,1
1022,513,0,525,38,1
1022,511,0,507,39,1
1022,511,0,507,39,1
1022,511,0,507,39,1
1022,511,0,507,39,1
1022,512,0,525,39,1
1022,512,0,525,39,1
1022,512,0,525,39,1
1022,512,0,525,39,1
1022,512,0,525,39,1
1022,510,0,525,39,1
1022,510,0,525,39,1
1022,510,0,525,39,1
1022,510,0,525,39,1
1022,510,0,525,39,1
1022,509,0,519,39,1
1022,509,0,519,39,1
1022,509,0,519,39,1
1022,509,0,519,39,1
1022,509,0,519,39,1
1022,509,0,519,39,1
1022,509,0,510,39,1
1022,509,0,510,39,1
1022,509,0,510,39,1
1022,509,0,510,39,1
1022,509,0,510,39,1
1022,509,0,510,39,1
1022,509,0,510,39,1
1022,510,0,515,39,1
1022,510,0,515,39,1
1022,510,0,515,39,1
1022,510,0,515,39,1
1022,510,0,515,39,1
1022,510,0,515,39,1
1022,510,0,515,39,1
1022,510,0,515,39,1
1022,512,0,511,39,1
1022,512,0,511,39,1
1022,512,0,511,39,1
1022,512,0,511,39,1
1022,512,0,511,39,1
1022,512,0,511,39,1
1022,512,0,511,39,1
1022,512,0,511,39,1
1022,512,0,511,39,1
1022,512,0,511,39,1
1022,511,0,511,39,1
1022,511,0,511,39,1
1022,511,0,511,39,1
1022,511,0,511,39,1
1022,511,0,511,39,1
1022,511,0,511,39,1
1022,511,0,511,39,1
1022,511,0,511,39,1
1022,511,0,511,39,1
1022,512,0,520,39,1
1022,512,0,520,39,1
1022,512,0,520,39,1
1022,510,0,508,39,1
1022,510,0,508,39,1
1022,510,0,508,39,1
1022,510,0,508,39,1
1022,510,0,508,39,1
1022,510,0,508,39,1
1022,510,0,507,39,1
1022,510,0,507,39,1
1022,510,0,507,39,1
1022,510,0,507,39,1
1022,510,0,507,39,1
1022,510,0,507,39,1
1022,510,0,507,39,1
1022,510,0,507,39,1
1022,510,0,507,39,1
1022,513,0,510,39,1
1022,513,0,510,39,1
1022,513,0,510,39,1
1022,513,0,510,39,1
1022,511,0,513,39,1
1022,511,0,513,39,1
1022,511,0,513,39,1
1022,511,0,513,39,1
1022,511,0,513,39,1
1022,508,0,517,39,1
1022,508,0,517,39,1
1022,508,0,517,39,1
1022,508,0,517,39,1
1022,508,0,517,39,1
1022,508,0,517,39,1
1022,508,0,517,39,1
1022,508,0,517,39,1
1022,508,0,517,39,1
1022,508,0,517,39,1
1022,508,0,517,39,1
1022,508,0,517,39,1
1022,508,0,517,39,1
1022,509,0,525,39,1
1022,511,0,510,39,1
1022,511,0,510,39,1
1022,511,0,510,39,1
1022,511,0,510,39,1
1022,511,0,510,39,1
1022,511,0,510,39,1
1022,508,0,521,39,1
1022,508,0,521,39,1
1022,508,0,521,39,1
1022,508,0,521,39,1
1022,508,0,521,39,1
1022,508,0,521,39,1
1022,509,0,513,39,1
1022,509,0,513,39,1
1022,509,0,513,39,1
1022,509,0,513,39,1
1022,509,0,520,39,1
1022,509,0,520,39,1
1022,509,0,520,39,1
1022,509,0,520,39,1
1022,509,0,520,39,1
1022,509,0,520,39,1
1022,510,0,513,39,1
1022,510,0,513,39,1
1022,510,0,513,39,1
1022,510,0,513,39,1
1022,510,0,513,39,1
1022,510,0,513,39,1
1022,510,0,513,39,1
1022,510,0,513,39,1
1022,509,0,519,39,1
1022,509,0,519,39,1
1022,509,0,519,39,1
1022,509,0,519,39,1
1022,509,0,519,39,1
1022,510,0,518,39,1
1022,510,0,518,39,1
1022,510,0,518,39,1
1022,510,0,518,39,1
1022,511,0,501,39,1
1022,511,0,501,39,1
1022,511,0,501,39,1
1022,511,0,501,39,1
1022,511,0,501,39,1
1022,511,0,501,39,1
1022,511,0,501,39,1
1022,511,0,516,39,1
1022,511,0,516,39,1
1022,511,0,516,39,1
1022,511,0,516,39,1
1022,511,0,516,39,1
1022,510,0,509,39,1
1022,510,0,509,39,1
1022,510,0,509,39,1
1022,510,0,509,39,1
1022,510,0,509,39,1
1022,510,0,509,39,1
1022,510,0,509,39,1
1022,509,0,526,39,1
1022,509,0,526,39,1
1022,509,0,526,39,1
1022,509,0,526,39,1
1022,509,0,526,39,1
1022,511,0,516,39,1
1022,511,0,516,39,1
1022,511,0,516,39,1
1022,511,0,516,39,1
1022,511,0,516,39,1
1022,511,0,516,39,1
1022,511,0,516,39,1
1022,511,0,497,39,1
1022,511,0,497,39,1
1022,511,0,497,39,1
1022,511,0,497,39,1
1022,511,0,497,39,1
1022,511,0,497,39,1
1022,510,0,505,39,1
1022,510,0,505,39,1
1022,510,0,505,39,1
1022,510,0,505,39,1
1022,510,0,505,39,1
1022,510,0,505,39,1
1022,510,0,505,39,1
1022,510,0,505,39,1
1022,510,0,505,39,1
1022,511,0,511,39,1
1022,511,0,511,39,1
1022,511,0,511,39,1
1022,511,0,511,39,1
1022,510,0,512,39,1
1022,510,0,512,39,1
1022,510,0,512,39,1
1022,510,0,512,39,1
1022,510,0,512,39,1
1022,511,0,514,39,1
1022,511,0,514,39,1
1022,511,0,514,39,1
1022,511,0,514,39,1
1022,511,0,514,39,1
1022,511,0,514,39,1
1022,511,0,514,39,1
1022,511,0,514,39,1
1022,511,0,517,39,1
1022,511,0,517,39,1
1022,511,0,517,39,1
1022,511,0,517,39,1
1022,509,0,503,39,1
1022,509,0,503,39,1
1022,509,0,503,39,1
1022,509,0,503,39,1
1022,509,0,503,39,1
1022,512,0,510,39,1
1022,512,0,510,39,1
1022,512,0,510,39,1
1022,512,0,510,39,1
1022,512,0,510,39,1
1022,512,0,510,39,1
1022,512,0,510,39,1
1022,514,0,510,39,1
1022,514,0,510,39,1
1022,514,0,510,39,1
1022,514,0,510,39,1
1022,514,0,510,39,1
1022,514,0,510,39,1
1022,510,0,512,39,1
1022,510,0,512,39,1
1022,510,0,512,39,1
1022,510,0,512,39,1
1022,510,0,512,39,1
1022,510,0,512,39,1
1022,513,0,511,39,1
1022,513,0,511,39,1
1022,513,0,511,39,1
1022,513,0,511,39,1
1022,513,0,511,39,1
1022,509,0,520,39,1
1022,509,0,520,39,1
1022,509,0,520,39,1
1022,509,0,520,39,1
1022,509,0,520,39,1
1022,509,0,520,39,1
1022,509,0,520,39,1
1022,509,0,505,39,1
1022,509,0,505,39,1
1022,509,0,505,39,1
1022,509,0,505,39,1
1022,509,0,505,39,1
1022,509,0,505,39,1
1022,509,0,505,39,1
1022,509,0,515,38,1
1022,509,0,515,38,1
1022,509,0,515,38,1
1022,509,0,515,38,1
1022,513,0,492,39,1
1022,513,0,492,39,1
1022,513,0,492,39,1
1022,513,0,492,39,1
1022,513,0,492,39,1
1022,513,0,492,39,1
1022,513,0,492,39,1
1022,512,0,506,39,1
1022,512,0,506,39,1
1022,512,0,506,39,1
1022,512,0,506,39,1
1022,512,0,506,39,1
1022,512,0,506,39,1
1022,509,0,508,39,1
1022,509,0,508,39,1
1022,509,0,508,39,1
1022,509,0,508,39,1
1022,509,0,508,39,1
1022,514,0,510,39,1
1022,514,0,510,39,1
1022,514,0,510,39,1
1022,514,0,510,39,1
1022,514,0,510,39,1
1022,514,0,510,39,1
1022,514,0,510,39,1
1022,510,0,506,39,1
1022,510,0,506,39,1
1022,510,0,506,39,1
1022,510,0,506,39,1
1022,510,0,506,39,1
1022,510,0,506,39,1
1022,511,0,509,39,1
1022,511,0,509,39,1
1022,511,0,509,39,1
1022,511,0,509,39,1
1022,511,0,509,39,1
1022,510,0,503,39,1
1022,510,0,503,39,1
1022,510,0,503,39,1
1022,510,0,503,39,1
1022,510,0,503,39,1
1022,510,0,503,39,1
1022,510,0,503,39,1
1022,509,0,505,39,1
1022,509,0,505,39,1
1022,509,0,505,39,1
1022,509,0,505,39,1
1022,509,0,505,39,1
1022,511,0,510,39,1
1022,511,0,510,39,1
1022,511,0,510,39,1
1022,511,0,510,39,1
1022,511,0,510,39,1
1022,511,0,510,39,1
1022,511,0,510,39,1
1022,511,0,504,39,1
1022,511,0,504,39,1
1022,511,0,504,39,1
1022,511,0,504,39,1
1022,511,0,504,39,1
1022,509,0,502,39,1
1022,509,0,502,39,1
1022,509,0,502,39,1
1022,509,0,502,39,1
1022,509,0,502,39,1
1022,509,0,502,39,1
1022,509,0,502,39,1
1022,510,0,513,39,1
1022,510,0,513,39,1
1022,510,0,513,39,1
1022,510,0,513,39,1
1022,510,0,513,39,1
1022,508,0,496,38,1
1022,508,0,496,38,1
1022,508,0,496,38,1
1022,508,0,496,38,1
1022,508,0,496,38,1
1022,508,0,496,38,1
1022,508,0,496,38,1
1022,511,0,499,39,1
1022,511,0,499,39,1
1022,511,0,499,39,1
1022,511,0,499,39,1
1022,511,0,499,39,1
1022,508,0,496,38,1
1022,508,0,496,38,1
1022,508,0,496,38,1
1022,508,0,496,38,1
1022,508,0,496,38,1
1022,508,0,496,38,1
1022,508,0,496,38,1
1022,508,0,496,38,1
1022,508,0,496,38,1
1022,511,0,518,39,1
1022,511,0,518,39,1
1022,511,0,518,39,1
1022,511,0,518,39,1
1022,512,0,497,39,1
1022,512,0,497,39,1
1022,512,0,497,39,1
1022,512,0,497,39,1
1022,512,0,497,39,1
1022,512,0,497,39,1
1022,512,0,497,39,1
1022,512,0,497,39,1
1022,512,0,497,39,1
1022,512,0,497,39,1
1022,512,0,497,39,1
1022,512,0,497,39,1
1022,512,0,497,39,1
1022,512,0,503,38,1
1022,512,0,503,38,1
1022,512,0,503,38,1
1022,512,0,503,38,1
1022,512,0,503,38,1
1022,510,0,512,39,1
1022,510,0,512,39,1
1022,510,0,512,39,1
1022,510,0,512,39,1
1022,510,0,512,39,1
1022,513,0,503,39,1
1022,513,0,503,39,1
1022,513,0,503,39,1
1022,513,0,503,39,1
1022,513,0,503,39,1
1022,513,0,503,39,1
1022,513,0,503,39,1
1022,513,0,508,39,1
1022,513,0,508,39,1
1022,513,0,508,39,1
1022,513,0,508,39,1
1022,513,0,508,39,1
1022,513,0,508,39,1
1022,513,0,495,39,1
1022,513,0,495,39,1
1022,513,0,495,39,1
1022,513,0,495,39,1
1022,513,0,495,39,1
1022,513,0,495,39,1
1022,510,0,500,39,1
1022,510,0,500,39,1
1022,510,0,500,39,1
1022,510,0,500,39,1
1022,510,0,500,39,1
1022,510,0,503,39,1
1022,510,0,503,39,1
1022,510,0,503,39,1
1022,510,0,503,39,1
1022,510,0,503,39,1
1022,510,0,503,39,1
1022,510,0,503,39,1
1022,511,0,502,39,1
1022,511,0,502,39,1
1022,511,0,502,39,1
1022,511,0,502,39,1
1022,511,0,502,39,1
1022,511,0,502,39,1
1022,511,0,502,39,1
1022,510,0,503,39,1
1022,510,0,503,39,1
1022,510,0,503,39,1
1022,510,0,503,39,1
1022,510,0,503,39,1
1022,512,0,501,39,1
1022,512,0,501,39,1
1022,512,0,501,39,1
1022,512,0,501,39,1
1022,512,0,501,39,1
1022,512,0,501,39,1
1022,515,0,502,39,1
1022,515,0,502,39,1
1022,515,0,502,39,1
1022,515,0,502,39,1
1022,515,0,502,39,1
1022,515,0,502,39,1
1022,510,0,495,39,1
1022,510,0,495,39,1
1022,510,0,495,39,1
1022,510,0,495,39,1
1022,510,0,495,39,1
1022,508,0,496,39,1
1022,508,0,496,39,1
1022,508,0,496,39,1
1022,508,0,496,39,1
1022,508,0,496,39,1
1022,508,0,496,39,1
1022,508,0,496,39,1
1022,512,0,508,39,1
1022,512,0,508,39,1
1022,512,0,508,39,1
1022,512,0,508,39,1
1022,512,0,508,39,1
1022,512,0,508,39,1
1022,512,0,508,39,1
1022,510,0,501,39,1
1022,510,0,501,39,1
1022,510,0,501,39,1
1022,510,0,501,39,1
1022,510,0,501,39,1
1022,514,0,499,39,1
1022,514,0,499,39,1
1022,514,0,499,39,1
1022,514,0,499,39,1
1022,514,0,499,39,1
1022,510,0,495,39,1
1022,510,0,495,39,1
1022,510,0,495,39,1
1022,510,0,495,39,1
1022,510,0,495,39,1
1022,510,0,495,39,1
1022,510,0,495,39,1
1022,509,0,493,39,1
1022,509,0,493,39,1
1022,509,0,493,39,1
1022,509,0,493,39,1
1022,509,0,493,39,1
1022,512,0,496,39,1
1022,512,0,496,39,1
1022,512,0,496,39,1
1022,512,0,496,39,1
1022,512,0,496,39,1
1022,512,0,496,39,1
1022,512,0,496,39,1
1022,507,0,503,39,1
1022,507,0,503,39,1
1022,507,0,503,39,1
1022,507,0,503,39,1
1022,507,0,503,39,1
1022,507,0,503,39,1
1022,507,0,503,39,1
1022,511,0,495,39,1
1022,511,0,495,39,1
1022,511,0,495,39,1
1022,511,0,495,39,1
1022,511,0,495,39,1
1022,514,0,494,39,1
1022,514,0,494,39,1
1022,514,0,494,39,1
1022,514,0,494,39,1
1022,514,0,494,39,1
1022,514,0,494,39,1
1022,511,0,509,39,1
1022,511,0,509,39,1
1022,511,0,509,39,1
1022,511,0,509,39,1
1022,511,0,509,39,1
1022,511,0,509,39,1
1022,511,0,504,39,1
1022,511,0,504,39,1
1022,511,0,504,39,1
1022,511,0,504,39,1
1022,511,0,504,39,1
1022,512,0,490,39,1
1022,512,0,490,39,1
1022,512,0,490,39,1
1022,512,0,490,39,1
1022,512,0,490,39,1
1022,512,0,490,39,1
1022,512,0,490,39,1
1022,512,0,490,39,1
1022,512,0,491,39,1
1022,512,0,491,39,1
1022,512,0,491,39,1
1022,512,0,491,39,1
1022,512,0,491,39,1
1022,513,0,491,39,1
1022,513,0,491,39,1
1022,513,0,491,39,1
1022,513,0,491,39,1
1022,513,0,491,39,1
1022,513,0,491,39,1
1022,513,0,491,39,1
1022,513,0,491,39,1
1022,513,0,491,39,1
1022,508,0,496,39,1
1022,508,0,496,39,1
1022,508,0,496,39,1
1022,509,0,505,39,1
1022,509,0,505,39,1
1022,509,0,505,39,1
1022,509,0,505,39,1
1022,509,0,505,39,1
1022,514,0,503,39,1
1022,514,0,503,39,1
1022,514,0,503,39,1
1022,514,0,503,39,1
1022,514,0,503,39,1
1022,514,0,503,39,1
1022,514,0,503,39,1
1022,509,0,492,39,1
1022,509,0,492,39,1
1022,509,0,492,39,1
1022,509,0,492,39,1
1022,509,0,492,39,1
1022,509,0,492,39,1
1022,511,0,502,39,1
1022,511,0,502,39,1
1022,511,0,502,39,1
1022,511,0,502,39,1
1022,511,0,502,39,1
1022,511,0,502,39,1
1022,511,0,499,39,1
1022,511,0,499,39,1
1022,511,0,499,39,1
1022,511,0,499,39,1
1022,511,0,499,39,1
1022,511,0,499,39,1
1022,511,0,499,39,1
1022,511,0,499,39,1
1022,511,0,499,39,1
1022,511,0,499,39,1
1022,511,0,499,39,1
1022,511,0,499,39,1
1022,513,0,489,39,1
1022,513,0,489,39,1
1022,513,0,489,39,1
1022,513,0,489,39,1
1022,513,0,489,39,1
1022,512,0,497,39,1
1022,512,0,497,39,1
1022,512,0,497,39,1
1022,512,0,497,39,1
1022,512,0,497,39,1
1022,512,0,497,39,1
1022,512,0,497,39,1
1022,509,0,489,39,1
1022,509,0,489,39,1
1022,509,0,489,39,1
1022,509,0,489,39,1
1022,509,0,489,39,1
1022,509,0,489,39,1
1022,509,0,489,39,1
1022,513,0,491,39,1
1022,513,0,491,39,1
1022,513,0,491,39,1
1022,513,0,491,39,1
1022,510,0,501,39,1
1022,510,0,501,39,1
1022,510,0,501,39,1
1022,510,0,501,39,1
1022,510,0,501,39,1
1022,510,0,501,39,1
1022,509,0,504,39,1
1022,509,0,504,39,1
1022,509,0,504,39,1
1022,509,0,504,39,1
1022,509,0,504,39,1
1022,509,0,504,39,1
1022,509,0,504,39,1
1022,512,0,494,39,1
1022,512,0,494,39,1
1022,512,0,494,39,1
1022,512,0,494,39,1
1022,512,0,494,39,1
1022,512,0,488,39,1
1022,512,0,488,39,1
1022,512,0,488,39,1
1022,512,0,488,39,1
1022,512,0,488,39,1
1022,512,0,488,39,1
1022,512,0,488,39,1
1022,511,0,495,39,1
1022,511,0,495,39,1
1022,511,0,495,39,1
1022,511,0,495,39,1
1022,511,0,495,39,1
1022,511,0,495,39,1
1022,513,0,487,39,1
1022,513,0,487,39,1
1022,513,0,487,39,1
1022,513,0,487,39,1
1022,513,0,487,39,1
1022,513,0,487,39,1
1022,513,0,483,39,1
1022,513,0,483,39,1
1022,513,0,483,39,1
1022,513,0,483,39,1
1022,513,0,483,39,1
1022,513,0,483,39,1
1022,513,0,483,39,1
1022,513,0,483,39,1
1022,513,0,483,39,1
1022,512,0,497,39,1
1022,512,0,497,39,1
1022,513,0,495,39,1
1022,513,0,495,39,1
1022,513,0,495,39,1
1022,513,0,495,39,1
1022,513,0,495,39,1
1022,513,0,495,39,1
1022,513,0,495,39,1
1022,512,0,492,39,1
1022,512,0,492,39,1
1022,512,0,492,39,1
1022,512,0,492,39,1
1022,512,0,492,39,1
1022,512,0,492,39,1
1022,512,0,492,39,1
1022,512,0,492,39,1
1022,510,0,480,39,1
1022,510,0,480,39,1
1022,510,0,480,39,1
1022,510,0,480,39,1
1022,510,0,480,39,1
1022,510,0,480,39,1
1022,510,0,493,39,1
1022,510,0,493,39,1
1022,510,0,493,39,1
1022,510,0,493,39,1
1022,510,0,493,39,1
1022,510,0,493,39,1
1022,510,0,493,39,1
1022,514,0,498,39,1
1022,514,0,498,39,1
1022,514,0,498,39,1
1022,509,0,495,39,1
1022,509,0,495,39,1
1022,509,0,495,39,1
1022,509,0,495,39,1
1022,509,0,495,39,1
1022,509,0,495,39,1
1022,509,0,495,39,1
1022,511,0,492,39,1
1022,511,0,492,39,1
1022,511,0,492,39,1
1022,511,0,492,39,1
1022,511,0,492,39,1
1022,513,0,493,39,1
1022,513,0,493,39,1
1022,513,0,493,39,1
1022,513,0,493,39,1
1022,513,0,493,39,1
1022,512,0,502,39,1
1022,512,0,502,39,1
1022,512,0,502,39,1
1022,512,0,502,39,1
1022,512,0,502,39,1
1022,512,0,502,39,1
1022,512,0,502,39,1
1022,512,0,502,39,1
1022,512,0,486,38,1
1022,512,0,486,38,1
1022,512,0,486,38,1
1022,512,0,486,38,1
1022,512,0,486,38,1
1022,512,0,486,38,1
1022,510,0,495,39,1
1022,510,0,495,39,1
1022,510,0,495,39,1
1022,510,0,495,39,1
1022,510,0,495,39,1
1022,511,0,487,39,1
1022,511,0,487,39,1
1022,511,0,487,39,1
1022,511,0,487,39,1
1022,511,0,487,39,1
1022,511,0,487,39,1
1022,511,0,487,39,1
1022,511,0,487,39,1
1022,511,0,488,39,1
1022,511,0,488,39,1
1022,511,0,488,39,1
1022,511,0,499,39,1
1022,511,0,499,39,1
1022,511,0,499,39,1
1022,511,0,499,39,1
1022,511,0,499,39,1
1022,511,0,499,39,1
1022,512,0,492,39,1
1022,512,0,492,39,1
1022,512,0,492,39,1
1022,512,0,492,39,1
1022,512,0,492,39,1
1022,512,0,492,39,1
1022,512,0,492,39,1
1022,512,0,492,39,1
1022,515,0,494,38,1
1022,515,0,494,38,1
1022,515,0,494,38,1
1022,515,0,494,38,1
1022,515,0,494,38,1
1022,515,0,494,38,1
1022,511,0,502,39,1
1022,511,0,502,39,1
1022,511,0,502,39,1
1022,511,0,502,39,1
1022,511,0,502,39,1
1022,512,0,501,39,1
1022,512,0,501,39,1
1022,512,0,501,39,1
1022,512,0,501,39,1
1022,512,0,501,39,1
1022,512,0,501,39,1
1022,512,0,501,39,1
1022,512,0,501,39,1
1022,511,0,505,39,1
1022,511,0,505,39,1
1022,511,0,505,39,1
1022,509,0,501,39,1
1022,509,0,501,39,1
1022,509,0,501,39,1
1022,509,0,501,39,1
1022,509,0,501,39,1
1022,509,0,501,39,1
1022,510,0,491,39,1
1022,510,0,491,39,1
1022,510,0,491,39,1
1022,510,0,491,39,1
1022,510,0,491,39,1
1022,510,0,491,39,1
1022,510,0,491,39,1
1022,514,0,486,39,1
1022,514,0,486,39,1
1022,514,0,486,39,1
1022,514,0,486,39,1
1022,514,0,486,39,1
1022,514,0,486,39,1
1022,511,0,492,39,1
1022,511,0,492,39,1
1022,511,0,492,39,1
1022,511,0,492,39,1
1022,511,0,492,39,1
1022,511,0,492,39,1
1022,511,0,492,39,1
1022,515,0,496,39,1
1022,515,0,496,39,1
1022,515,0,496,39,1
1022,515,0,496,39,1
1022,515,0,496,39,1
1022,512,0,492,39,1
1022,512,0,492,39,1
1022,512,0,492,39,1
1022,512,0,492,39,1
1022,512,0,492,39,1
1022,511,0,498,39,1
1022,511,0,498,39,1
1022,511,0,498,39,1
1022,511,0,498,39,1
1022,511,0,498,39,1
1022,511,0,498,39,1
1022,511,0,498,39,1
1022,513,0,494,39,1
1022,513,0,494,39,1
1022,513,0,494,39,1
1022,513,0,494,39,1
1022,513,0,494,39,1
1022,513,0,494,39,1
1022,510,0,503,39,1
1022,510,0,503,39,1
1022,510,0,503,39,1
1022,510,0,503,39,1
1022,510,0,503,39,1
1022,510,0,503,39,1
1022,510,0,503,39,1
1022,510,0,503,39,1
1022,510,0,501,39,1
1022,510,0,501,39,1
1022,510,0,501,39,1
1022,512,0,484,39,1
1022,512,0,484,39,1
1022,512,0,484,39,1
1022,512,0,484,39,1
1022,512,0,484,39,1
1022,512,0,484,39,1
1022,512,0,484,39,1
1022,513,0,492,39,1
1022,513,0,492,39,1
1022,513,0,492,39,1
1022,513,0,492,39,1
1022,513,0,492,39,1
1022,513,0,492,39,1
1022,513,0,489,39,1
1022,513,0,489,39,1
1022,513,0,489,39,1
1022,513,0,489,39,1
1022,513,0,489,39,1
1022,510,0,496,39,1
1022,510,0,496,39,1
1022,510,0,496,39,1
1022,510,0,496,39,1
1022,510,0,496,39,1
1022,510,0,496,39,1
1022,513,0,493,39,1
1022,513,0,493,39,1
1022,513,0,493,39,1
1022,513,0,493,39,1
1022,513,0,493,39,1
1022,513,0,493,39,1
1022,513,0,493,39,1
1022,513,0,493,39,1
1022,510,0,487,39,1
1022,510,0,487,39,1
1022,510,0,487,39,1
1022,510,0,487,39,1
1022,510,0,487,39,1
1022,508,0,487,39,1
1022,508,0,487,39,1
1022,508,0,487,39,1
1022,508,0,487,39,1
1022,508,0,487,39,1
1022,515,0,505,39,1
1022,515,0,505,39,1
1022,515,0,505,39,1
1022,515,0,505,39,1
1022,515,0,505,39,1
1022,515,0,505,39,1
1022,515,0,505,39,1
1022,510,0,496,39,1
1022,510,0,496,39,1
1022,510,0,496,39,1
1022,510,0,496,39,1
1022,510,0,496,39,1
1022,510,0,492,39,1
1022,510,0,492,39,1
1022,510,0,492,39,1
1022,510,0,492,39,1
1022,510,0,492,39,1
1022,510,0,492,39,1
1022,510,0,495,39,1
1022,510,0,495,39,1
1022,510,0,495,39,1
1022,510,0,495,39,1
1022,510,0,495,39,1
1022,510,0,495,39,1
1022,510,0,495,39,1
1022,515,0,493,39,1
1022,515,0,493,39,1
1022,515,0,493,39,1
1022,515,0,493,39,1
1022,515,0,493,39,1
1022,515,0,493,39,1
1022,515,0,493,39,1
1022,515,0,493,39,1
1022,515,0,493,39,1
1022,512,0,488,39,1
1022,512,0,488,39,1
1022,512,0,488,39,1
1022,515,0,494,39,1
1022,515,0,494,39,1
1022,515,0,494,39,1
1022,515,0,494,39,1
1022,515,0,494,39,1
1022,515,0,494,39,1
1022,514,0,499,39,1
1022,514,0,499,39,1
1022,514,0,499,39,1
1022,514,0,499,39,1
1022,514,0,499,39,1
1022,512,0,486,39,1
1022,512,0,486,39,1
1022,512,0,486,39,1
1022,512,0,486,39,1
1022,512,0,486,39,1
1022,512,0,486,39,1
1022,512,0,486,39,1
1022,513,0,496,39,1
1022,513,0,496,39,1
1022,513,0,496,39,1
1022,513,0,496,39,1
1022,513,0,496,39,1
1022,514,0,494,39,1
1022,514,0,494,39,1
1022,514,0,494,39,1
1022,514,0,494,39,1
1022,514,0,494,39,1
1022,514,0,494,39,1
1022,514,0,494,39,1
1022,510,0,496,39,1
1022,510,0,496,39,1
1022,510,0,496,39,1
1022,510,0,496,39,1
1022,510,0,496,39,1
1022,510,0,496,39,1
1022,510,0,496,39,1
1022,511,0,490,39,1
1022,511,0,490,39,1
1022,511,0,490,39,1
1022,511,0,490,39,1
1022,511,0,490,39,1
1022,515,0,491,39,1
1022,515,0,491,39,1
1022,515,0,491,39,1
1022,515,0,491,39,1
1022,515,0,491,39,1
1022,515,0,491,39,1
1022,515,0,491,39,1
1022,515,0,491,39,1
1022,515,0,491,39,1
1022,515,0,491,39,1
1022,511,0,486,39,1
1022,511,0,486,39,1
1022,515,0,488,39,1
1022,515,0,488,39,1
1022,515,0,488,39,1
1022,515,0,488,39,1
1022,515,0,488,39,1
1022,514,0,493,39,1
1022,514,0,493,39,1
1022,514,0,493,39,1
1022,514,0,493,39,1
1022,514,0,493,39,1
1022,514,0,493,39,1
1022,511,0,489,39,1
1022,511,0,489,39,1
1022,511,0,489,39,1
1022,511,0,489,39,1
1022,511,0,489,39,1
1022,511,0,489,39,1
1022,516,0,494,39,1
1022,516,0,494,39,1
1022,516,0,494,39,1
1022,516,0,494,39,1
1022,516,0,494,39,1
1022,516,0,494,39,1
1022,516,0,494,39,1
1022,516,0,494,39,1
1022,511,0,493,39,1
1022,511,0,493,39,1
1022,511,0,493,39,1
1022,511,0,493,39,1
1022,511,0,493,39,1
1022,511,0,483,39,1
1022,511,0,483,39,1
1022,511,0,483,39,1
1022,511,0,483,39,1
1022,511,0,483,39,1
1022,511,0,483,39,1
1022,511,0,502,39,1
1022,511,0,502,39,1
1022,511,0,502,39,1
1022,511,0,502,39,1
1022,511,0,502,39,1
1022,512,0,496,39,1
1022,512,0,496,39,1
1022,512,0,496,39,1
1022,512,0,496,39,1
1022,512,0,496,39,1
1022,512,0,496,39,1
1022,512,0,496,39,1
1022,512,0,496,39,1
1022,512,0,496,39,1
1022,512,0,496,39,1
1022,513,0,489,39,1
1022,513,0,489,39,1
1022,513,0,489,39,1
1022,512,0,498,39,1
1022,512,0,498,39,1
1022,512,0,498,39,1
1022,512,0,498,39,1
1022,512,0,498,39,1
1022,512,0,498,39,1
1022,512,0,498,39,1
1022,510,0,489,39,1
1022,510,0,489,39,1
1022,510,0,489,39,1
1022,510,0,489,39,1
1022,510,0,489,39,1
1022,513,0,492,39,1
1022,513,0,492,39,1
1022,513,0,492,39,1
1022,513,0,492,39,1
1022,513,0,492,39,1
1022,513,0,492,39,1
1022,513,0,492,39,1
1022,511,0,492,39,1
1022,511,0,492,39,1
1022,511,0,492,39,1
1022,511,0,492,39,1
1022,511,0,492,39,1
1022,510,0,485,39,1
1022,510,0,485,39,1
1022,510,0,485,39,1
1022,510,0,485,39,1
1022,510,0,485,39,1
1022,510,0,485,39,1
1022,510,0,485,39,1
1022,510,0,485,39,1
1022,512,0,492,39,1
1022,512,0,492,39,1
1022,512,0,492,39,1
1022,512,0,492,39,1
1022,513,0,491,39,1
1022,513,0,491,39,1
1022,513,0,491,39,1
1022,513,0,491,39,1
1022,513,0,491,39,1
1022,513,0,483,39,1
1022,513,0,483,39,1
1022,513,0,483,39,1
1022,513,0,483,39,1
1022,513,0,483,39,1
1022,513,0,483,39,1
1022,513,0,483,39,1
1022,513,0,483,39,1
1022,513,0,483,39,1
1022,513,0,493,39,1
1022,513,0,493,39,1
1022,513,0,493,39,1
1022,513,0,493,39,1
1022,511,0,492,39,1
1022,511,0,492,39,1
1022,511,0,492,39,1
1022,511,0,492,39,1
1022,511,0,492,39,1
1022,511,0,492,39,1
1022,511,0,492,39,1
1022,513,0,489,39,1
1022,513,0,489,39,1
1022,513,0,489,39,1
1022,513,0,489,39,1
1022,513,0,489,39,1
1022,513,0,489,39,1
1022,513,0,489,39,1
1022,513,0,489,39,1
1022,512,0,492,39,1
1022,512,0,492,39,1
1022,512,0,492,39,1
1022,512,0,492,39,1
1022,514,0,497,39,1
1022,514,0,497,39,1
1022,514,0,497,39,1
1022,514,0,497,39,1
1022,513,0,495,39,1
1022,513,0,495,39,1
1022,513,0,495,39,1
1022,513,0,495,39,1
1022,513,0,495,39,1
1022,513,0,495,39,1
1022,513,0,495,39,1
1022,513,0,495,39,1
1022,513,0,487,39,1
1022,513,0,487,39,1
1022,513,0,487,39,1
1022,513,0,487,39,1
1022,513,0,487,39,1
1022,513,0,487,39,1
1022,511,0,504,39,1
1022,511,0,504,39,1
1022,511,0,504,39,1
1022,511,0,504,39,1
1022,511,0,504,39,1
1022,511,0,504,39,1
1022,512,0,487,39,1
1022,512,0,487,39,1
1022,512,0,487,39,1
1022,512,0,487,39,1
1022,512,0,487,39,1
1022,512,0,487,39,1
1022,512,0,487,39,1
1022,511,0,484,39,1
1022,511,0,484,39,1
1022,511,0,484,39,1
1022,511,0,484,39,1
1022,511,0,484,39,1
1022,513,0,502,39,1
1022,513,0,502,39,1
1022,513,0,502,39,1
1022,513,0,502,39,1
1022,513,0,502,39,1
1022,513,0,502,39,1
1022,514,0,487,39,1
1022,514,0,487,39,1
1022,514,0,487,39,1
1022,514,0,487,39,1
1022,514,0,487,39,1
1022,514,0,487,39,1
1022,514,0,494,39,1
1022,514,0,494,39,1
1022,514,0,494,39,1
1022,514,0,494,39,1
1022,514,0,494,39,1
1022,514,0,494,39,1
1022,515,0,487,39,1
1022,515,0,487,39,1
1022,515,0,487,39,1
1022,515,0,487,39,1
1022,515,0,487,39,1
1022,515,0,487,39,1
1022,515,0,487,39,1
1022,511,0,486,39,1
1022,511,0,486,39,1
1022,511,0,486,39,1
1022,511,0,486,39,1
1022,511,0,486,39,1
1022,511,0,486,39,1
1022,511,0,486,39,1
1022,512,0,488,39,1
1022,512,0,488,39,1
1022,514,0,486,39,1
1022,514,0,486,39,1
1022,514,0,486,39,1
1022,514,0,486,39,1
1022,514,0,486,39,1
1022,514,0,486,39,1
1022,514,0,486,39,1
1022,514,0,486,39,1
1022,513,0,496,39,1
1022,513,0,496,39,1
1022,513,0,496,39,1
1022,513,0,496,39,1
1022,511,0,491,39,1
1022,511,0,491,39,1
1022,511,0,491,39,1
1022,511,0,491,39,1
1022,511,0,491,39,1
1022,511,0,491,39,1
1022,511,0,491,39,1
1022,511,0,491,39,1
1022,511,0,491,39,1
1022,513,0,491,39,1
1022,513,0,491,39,1
1022,513,0,491,39,1
1022,510,0,498,39,1
1022,510,0,498,39,1
1022,510,0,498,39,1
1022,510,0,498,39,1
1022,510,0,498,39,1
1022,510,0,498,39,1
1022,510,0,498,39,1
1022,510,0,498,39,1
1022,510,0,498,39,1
1022,510,0,498,39,1
1022,510,0,498,39,1
1022,512,0,489,39,1
1022,512,0,489,39,1
1022,512,0,495,39,1
1022,512,0,495,39,1
1022,512,0,495,39,1
1022,512,0,495,39,1
1022,512,0,495,39,1
1022,512,0,495,39,1
1022,512,0,495,39,1
1022,514,0,497,39,1
1022,514,0,497,39,1
1022,514,0,497,39,1
1022,514,0,497,39,1
1022,514,0,497,39,1
1022,510,0,495,39,1
1022,510,0,495,39,1
1022,510,0,495,39,1
1022,510,0,495,39,1
1022,510,0,495,39,1
1022,511,0,489,39,1
1022,511,0,489,39,1
1022,511,0,489,39,1
1022,511,0,489,39,1
1022,511,0,489,39,1
1022,511,0,489,39,1
1022,508,0,502,39,1
1022,508,0,502,39,1
1022,508,0,502,39,1
1022,508,0,502,39,1
1022,508,0,502,39,1
1022,508,0,502,39,1
1022,508,0,502,39,1
1022,508,0,502,39,1
1022,508,0,502,39,1
1022,508,0,502,39,1
1022,508,0,502,39,1
1022,511,0,500,39,1
1022,511,0,500,39,1
1022,512,0,502,39,1
1022,512,0,502,39,1
1022,512,0,502,39,1
1022,512,0,502,39,1
1022,512,0,502,39,1
1022,512,0,502,39,1
1022,509,0,497,39,1
1022,509,0,497,39,1
1022,509,0,497,39,1
1022,509,0,497,39,1
1022,509,0,497,39,1
1022,509,0,497,39,1
1022,509,0,497,39,1
1022,509,0,497,39,1
1022,511,0,487,39,1
1022,511,0,487,39,1
1022,511,0,487,39,1
1022,511,0,487,39,1
1022,511,0,487,39,1
1022,511,0,487,39,1
1022,511,0,487,39,1
1022,513,0,477,39,1
1022,513,0,477,39,1
1022,514,0,495,39,1
1022,514,0,495,39,1
1022,514,0,495,39,1
1022,514,0,495,39,1
1022,514,0,495,39,1
1022,514,0,495,39,1
1022,514,0,495,39,1
1022,513,0,488,39,1
1022,513,0,488,39,1
1022,513,0,488,39,1
1022,513,0,488,39,1
1022,513,0,488,39,1
1022,511,0,490,39,1
1022,511,0,490,39,1
1022,511,0,490,39,1
1022,511,0,490,39,1
1022,511,0,490,39,1
1022,511,0,490,39,1
1022,511,0,490,39,1
1022,515,0,491,39,1
1022,515,0,491,39,1
1022,515,0,491,39,1
1022,515,0,491,39,1
1022,515,0,491,39,1
1022,515,0,491,39,1
1022,510,0,490,39,1
1022,510,0,490,39,1
1022,510,0,490,39,1
1022,510,0,490,39,1
1022,510,0,490,39,1
1022,516,0,486,39,1
1022,516,0,486,39,1
1022,516,0,486,39,1
1022,516,0,486,39,1
1022,516,0,486,39,1
1022,516,0,486,39,1
1022,516,0,486,39,1
1022,511,0,492,39,1
1022,511,0,492,39,1
1022,511,0,492,39,1
1022,511,0,492,39,1
1022,511,0,492,39,1
1022,515,0,498,39,1
1022,515,0,498,39,1
1022,515,0,498,39,1
1022,515,0,498,39,1
1022,515,0,498,39,1
1022,515,0,498,39,1
1022,513,0,493,39,1
1022,513,0,493,39,1
1022,513,0,493,39,1
1022,513,0,493,39,1
1022,513,0,493,39,1
1022,513,0,493,39,1
1022,513,0,493,39,1
1022,511,0,488,39,1
1022,511,0,488,39,1
1022,511,0,488,39,1
1022,511,0,488,39,1
1022,511,0,488,39,1
1022,513,0,484,39,1
1022,513,0,484,39,1
1022,513,0,484,39,1
1022,513,0,484,39,1
1022,513,0,484,39,1
1022,513,0,484,39,1
1022,510,0,493,39,1
1022,510,0,493,39,1
1022,510,0,493,39,1
1022,510,0,493,39,1
1022,510,0,493,39,1
1022,510,0,493,39,1
1022,510,0,493,39,1
1022,511,0,488,39,1
1022,511,0,488,39,1
1022,511,0,488,39,1
1022,511,0,488,39,1
1022,511,0,488,39,1
1022,513,0,496,39,1
1022,513,0,496,39,1
1022,513,0,496,39,1
1022,513,0,496,39,1
1022,513,0,496,39,1
1022,513,0,496,39,1
1022,511,0,482,39,1
1022,511,0,482,39,1
1022,511,0,482,39,1
1022,511,0,482,39,1
1022,511,0,482,39,1
1022,511,0,482,39,1
1022,511,0,482,39,1
1022,511,0,482,39,1
1022,514,0,484,39,1
1022,514,0,484,39,1
1022,514,0,484,39,1
1022,514,0,484,39,1
1022,514,0,484,39,1
1022,511,0,489,39,1
1022,511,0,489,39,1
1022,511,0,489,39,1
1022,511,0,489,39,1
1022,511,0,489,39,1
1022,513,0,487,39,1
1022,513,0,487,39,1
1022,513,0,487,39,1
1022,513,0,487,39,1
1022,513,0,487,39,1
1022,513,0,487,39,1
1022,513,0,487,39,1
1022,514,0,493,39,1
1022,514,0,493,39,1
1022,514,0,493,39,1
1022,514,0,493,39,1
1022,514,0,493,39,1
1022,514,0,493,39,1
1022,514,0,493,39,1
1022,514,0,493,39,1
1022,510,0,492,39,1
1022,510,0,492,39,1
1022,510,0,492,39,1
1022,510,0,492,39,1
1022,510,0,487,39,1
1022,510,0,487,39,1
1022,510,0,487,39,1
1022,510,0,487,39,1
1022,510,0,487,39,1
1022,510,0,487,39,1
1022,510,0,487,39,1
1022,513,0,477,39,1
1022,513,0,477,39,1
1022,513,0,477,39,1
1022,513,0,477,39,1
1022,513,0,477,39,1
1022,513,0,490,39,1
1022,513,0,490,39,1
1022,513,0,490,39,1
1022,513,0,490,39,1
1022,513,0,490,39,1
1022,512,0,487,39,1
1022,512,0,487,39,1
1022,512,0,487,39,1
1022,512,0,487,39,1
1022,512,0,487,39,1
1022,512,0,487,39,1
1022,512,0,487,39,1
1022,510,0,480,39,1
1022,510,0,480,39,1
1022,510,0,480,39,1
1022,510,0,480,39,1
1022,510,0,480,39,1
1022,514,0,481,39,1
1022,514,0,481,39,1
1022,514,0,481,39,1
1022,514,0,481,39,1
1022,514,0,481,39,1
1022,514,0,481,39,1
1022,514,0,481,39,1
1022,513,0,484,39,1
1022,513,0,484,39,1
1022,513,0,484,39,1
1022,513,0,484,39,1
1022,513,0,484,39,1
1022,513,0,484,39,1
1022,513,0,484,39,1
1022,510,0,491,39,1
1022,510,0,491,39,1
1022,510,0,491,39,1
1022,510,0,491,39,1
1022,510,0,491,39,1
1022,513,0,487,39,1
1022,513,0,487,39,1
1022,513,0,487,39,1
1022,513,0,487,39,1
1022,513,0,487,39,1
1022,511,0,493,39,1
1022,511,0,493,39,1
1022,511,0,493,39,1
1022,511,0,493,39,1
1022,511,0,493,39,1
1022,511,0,493,39,1
1022,511,0,484,39,1
1022,511,0,484,39,1
1022,511,0,484,39,1
1022,511,0,484,39,1
1022,511,0,484,39,1
1022,511,0,484,39,1
1022,511,0,484,39,1
1022,513,0,489,39,1
1022,513,0,489,39,1
1022,513,0,489,39,1
1022,513,0,489,39,1
1022,513,0,489,39,1
1022,513,0,489,39,1
1022,511,0,499,39,1
1022,511,0,499,39,1
1022,511,0,499,39,1
1022,511,0,499,39,1
1022,511,0,499,39,1
1022,511,0,499,39,1
1022,510,0,496,39,1
1022,510,0,496,39,1
1022,510,0,496,39,1
1022,510,0,496,39,1
1022,510,0,496,39,1
1022,510,0,489,39,1
1022,510,0,489,39,1
1022,510,0,489,39,1
1022,510,0,489,39,1
1022,510,0,489,39,1
1022,510,0,489,39,1
1022,510,0,489,39,1
1022,513,0,476,39,1
1022,513,0,476,39,1
1022,513,0,476,39,1
1022,513,0,476,39,1
1022,513,0,476,39,1
1022,511,0,489,39,1
1022,511,0,489,39,1
1022,511,0,489,39,1
1022,511,0,489,39,1
1022,511,0,489,39,1
1022,511,0,489,39,1
1022,509,0,486,39,1
1022,509,0,486,39,1
1022,509,0,486,39,1
1022,509,0,486,39,1
1022,509,0,486,39,1
1022,509,0,486,39,1
1022,511,0,502,39,1
1022,511,0,502,39,1
1022,511,0,502,39,1
1022,511,0,502,39,1
1022,511,0,502,39,1
1022,511,0,502,39,1
1022,511,0,502,39,1
1022,515,0,492,39,1
1022,515,0,492,39,1
1022,515,0,492,39,1
1022,515,0,492,39,1
1022,515,0,492,39,1
1022,515,0,492,39,1
1022,512,0,498,39,1
1022,512,0,498,39,1
1022,512,0,498,39,1
1022,512,0,498,39,1
1022,512,0,498,39,1
1022,512,0,498,39,1
1022,512,0,489,39,1
1022,512,0,489,39,1
1022,512,0,489,39,1
1022,512,0,489,39,1
1022,512,0,489,39,1
1022,512,0,489,39,1
1022,512,0,487,39,1
1022,512,0,487,39,1
1022,512,0,487,39,1
1022,512,0,487,39,1
1022,512,0,487,39,1
1022,512,0,487,39,1
1022,510,0,485,39,1
1022,510,0,485,39,1
1022,510,0,485,39,1
1022,510,0,485,39,1
1022,510,0,485,39,1
1022,510,0,485,39,1
1022,510,0,496,39,1
1022,510,0,496,39,1
1022,510,0,496,39,1
1022,510,0,496,39,1
1022,510,0,496,39,1
1022,510,0,496,39,1
1022,511,0,497,39,1
1022,511,0,497,39,1
1022,511,0,497,39,1
1022,511,0,497,39,1
1022,511,0,497,39,1
1022,511,0,497,39,1
1022,511,0,497,39,1
1022,511,0,497,39,1
1022,512,0,493,39,1
1022,512,0,493,39,1
1022,512,0,493,39,1
1022,510,0,494,39,1
1022,510,0,494,39,1
1022,510,0,494,39,1
1022,510,0,494,39,1
1022,510,0,494,39,1
1022,510,0,494,39,1
1022,513,0,494,39,1
1022,513,0,494,39,1
1022,513,0,494,39,1
1022,513,0,494,39,1
1022,513,0,494,39,1
1022,513,0,494,39,1
1022,513,0,494,39,1
1022,513,0,480,39,1
1022,513,0,480,39,1
1022,513,0,480,39,1
1022,513,0,480,39,1
1022,513,0,480,39,1
1022,513,0,480,39,1
1022,513,0,480,39,1
1022,513,0,484,39,1
1022,513,0,484,39,1
1022,513,0,484,39,1
1022,513,0,484,39,1
1022,513,0,484,39,1
1022,511,0,480,39,1
1022,511,0,480,39,1
1022,511,0,480,39,1
1022,511,0,480,39,1
1022,511,0,480,39,1
1022,511,0,495,39,1
1022,511,0,495,39,1
1022,511,0,495,39,1
1022,511,0,495,39,1
1022,511,0,495,39,1
1022,511,0,495,39,1
1022,511,0,495,39,1
1022,511,0,495,39,1
1022,510,0,498,39,1
1022,510,0,498,39,1
1022,510,0,498,39,1
1022,510,0,498,39,1
1022,510,0,498,39,1
1022,514,0,506,39,1
1022,514,0,506,39,1
1022,514,0,506,39,1
1022,514,0,506,39,1
1022,514,0,506,39,1
1022,514,0,506,39,1
1022,511,0,492,39,1
1022,511,0,492,39,1
1022,511,0,492,39,1
1022,511,0,492,39,1
1022,511,0,492,39,1
1022,511,0,492,39,1
1022,511,0,492,39,1
1022,511,0,500,39,1
1022,511,0,500,39,1
1022,511,0,500,39,1
1022,511,0,500,39,1
1022,511,0,500,39,1
1022,515,0,482,39,1
1022,515,0,482,39,1
1022,515,0,482,39,1
1022,515,0,482,39,1
1022,515,0,482,39,1
1022,513,0,490,39,1
1022,513,0,490,39,1
1022,513,0,490,39,1
1022,513,0,490,39,1
1022,513,0,490,39,1
1022,513,0,490,39,1
1022,513,0,490,39,1
1022,513,0,490,39,1
1022,515,0,480,39,1
1022,515,0,480,39,1
1022,515,0,480,39,1
1022,515,0,480,39,1
1022,512,0,502,39,1
1022,512,0,502,39,1
1022,512,0,502,39,1
1022,512,0,502,39,1
1022,512,0,502,39,1
1022,512,0,502,39,1
1022,512,0,502,39,1
1022,513,0,486,39,1
1022,513,0,486,39,1
1022,513,0,486,39,1
1022,513,0,486,39,1
1022,513,0,486,39,1
1022,513,0,491,39,1
1022,513,0,491,39,1
1022,513,0,491,39,1
1022,513,0,491,39,1
1022,513,0,491,39,1
1022,513,0,491,39,1
1022,513,0,491,39,1
1022,513,0,497,39,1
1022,513,0,497,39,1
1022,513,0,497,39,1
1022,513,0,497,39,1
1022,513,0,497,39,1
1022,510,0,491,39,1
1022,510,0,491,39,1
1022,510,0,491,39,1
1022,510,0,491,39,1
1022,510,0,491,39,1
1022,510,0,491,39,1
1022,513,0,493,39,1
1022,513,0,493,39,1
1022,513,0,493,39,1
1022,513,0,493,39,1
1022,513,0,493,39,1
1022,513,0,493,39,1
1022,511,0,499,39,1
1022,511,0,499,39,1
1022,511,0,499,39,1
1022,511,0,499,39,1
1022,511,0,499,39,1
1022,511,0,499,39,1
1022,511,0,499,39,1
1022,512,0,491,39,1
1022,512,0,491,39,1
1022,512,0,491,39,1
1022,512,0,491,39,1
1022,512,0,491,39,1
1022,512,0,491,39,1
1022,512,0,491,39,1
1022,512,0,489,39,1
1022,512,0,489,39,1
1022,512,0,489,39,1
1022,512,0,489,39,1
1022,512,0,489,39,1
1022,515,0,473,39,1
1022,515,0,473,39,1
1022,515,0,473,39,1
1022,515,0,473,39,1
1022,515,0,473,39,1
1022,515,0,473,39,1
1022,515,0,473,39,1
1022,515,0,473,39,1
1022,512,0,493,39,1
1022,512,0,493,39,1
1022,512,0,493,39,1
1022,512,0,493,39,1
1022,513,0,487,39,1
1022,513,0,487,39,1
1022,513,0,487,39,1
1022,513,0,487,39,1
1022,513,0,487,39,1
1022,513,0,487,39,1
1022,513,0,489,39,1
1022,513,0,489,39,1
1022,513,0,489,39,1
1022,513,0,489,39,1
1022,513,0,489,39,1
1022,512,0,489,39,1
1022,512,0,489,39,1
1022,512,0,489,39,1
1022,512,0,489,39,1
1022,512,0,489,39,1
1022,512,0,489,39,1
1022,513,0,492,39,1
1022,513,0,492,39,1
1022,513,0,492,39,1
1022,513,0,492,39,1
1022,513,0,492,39,1
1022,513,0,492,39,1
1022,513,0,497,39,1
1022,513,0,497,39,1
1022,513,0,497,39,1
1022,513,0,497,39,1
1022,513,0,497,39,1
1022,513,0,497,39,1
1022,513,0,485,39,1
1022,513,0,485,39,1
1022,513,0,485,39,1
1022,513,0,485,39,1
1022,513,0,485,39,1
1022,513,0,485,39,1
1022,513,0,485,39,1
1022,512,0,496,39,1
1022,512,0,496,39,1
1022,512,0,496,39,1
1022,512,0,496,39,1
1022,512,0,496,39,1
1022,512,0,496,39,1
1022,512,0,496,39,1
1022,511,0,488,39,1
1022,511,0,488,39,1
1022,511,0,488,39,1
1022,511,0,488,39,1
1022,511,0,488,39,1
1022,511,0,488,39,1
1022,511,0,488,39,1
1022,513,0,483,39,1
1022,513,0,483,39,1
1022,513,0,483,39,1
1022,513,0,487,39,1
1022,513,0,487,39,1
1022,513,0,487,39,1
1022,513,0,487,39,1
1022,513,0,487,39,1
1022,513,0,487,39,1
1022,510,0,481,39,1
1022,510,0,481,39,1
1022,510,0,481,39,1
1022,510,0,481,39,1
1022,510,0,481,39,1
1022,510,0,481,39,1
1022,511,0,494,39,1
1022,511,0,494,39,1
1022,511,0,494,39,1
1022,511,0,494,39,1
1022,511,0,494,39,1
1022,511,0,494,39,1
1022,511,0,494,39,1
1022,511,0,485,39,1
1022,511,0,485,39,1
1022,511,0,485,39,1
1022,511,0,485,39,1
1022,511,0,485,39,1
1022,511,0,485,39,1
1022,511,0,485,39,1
1022,513,0,490,39,1
1022,513,0,490,39,1
1022,513,0,490,39,1
1022,513,0,490,39,1
1022,513,0,490,39,1
1022,513,0,490,39,1
1022,513,0,490,39,1
1022,511,0,487,39,1
1022,511,0,487,39,1
1022,511,0,487,39,1
1022,511,0,487,39,1
1022,514,0,481,39,1
1022,514,0,481,39,1
1022,514,0,481,39,1
1022,514,0,481,39,1
1022,514,0,481,39,1
1022,514,0,481,39,1
1022,514,0,481,39,1
1022,513,0,495,39,1
1022,513,0,495,39,1
1022,513,0,495,39,1
1022,513,0,495,39,1
1022,513,0,495,39,1
1022,509,0,485,39,1
1022,509,0,485,39,1
1022,509,0,485,39,1
1022,509,0,485,39,1
1022,509,0,485,39,1
1022,513,0,484,39,1
1022,513,0,484,39,1
1022,513,0,484,39,1
1022,513,0,484,39,1
1022,513,0,484,39,1
1022,513,0,484,39,1
1022,513,0,484,39,1
1022,510,0,497,39,1
1022,510,0,497,39,1
1022,510,0,497,39,1
1022,510,0,497,39,1
1022,510,0,497,39,1
1022,510,0,497,39,1
1022,509,0,494,39,1
1022,509,0,494,39,1
1022,509,0,494,39,1
1022,509,0,494,39,1
1022,509,0,494,39,1
1022,512,0,490,39,1
1022,512,0,490,39,1
1022,512,0,490,39,1
1022,512,0,490,39,1
1022,512,0,490,39,1
1022,512,0,490,39,1
1022,512,0,490,39,1
1022,513,0,488,39,1
1022,513,0,488,39,1
1022,513,0,488,39,1
1022,513,0,488,39,1
1022,513,0,488,39,1
1022,513,0,488,39,1
1022,513,0,488,39,1
1022,515,0,492,39,1
1022,515,0,492,39,1
1022,515,0,492,39,1
1022,515,0,492,39,1
1022,515,0,492,39,1
1022,514,0,487,39,1
1022,514,0,487,39,1
1022,514,0,487,39,1
1022,514,0,487,39,1
1022,514,0,487,39,1
1022,514,0,487,39,1
1022,514,0,487,39,1
1022,512,0,492,39,1
1022,512,0,492,39,1
1022,512,0,492,39,1
1022,512,0,492,39,1
1022,512,0,492,39,1
1022,513,0,498,39,1
1022,513,0,498,39,1
1022,513,0,498,39,1
1022,513,0,498,39,1
1022,513,0,498,39,1
1022,513,0,488,39,1
1022,513,0,488,39,1
1022,513,0,488,39,1
1022,513,0,488,39,1
1022,513,0,488,39,1
1022,513,0,488,39,1
1022,513,0,488,39,1
1022,512,0,486,39,1
1022,512,0,486,39,1
1022,512,0,486,39,1
1022,512,0,486,39,1
1022,512,0,486,39,1
1022,512,0,486,39,1
1022,510,0,488,39,1
1022,510,0,488,39,1
1022,510,0,488,39,1
1022,510,0,488,39,1
1022,510,0,488,39,1
1022,512,0,490,39,1
1022,512,0,490,39,1
1022,512,0,490,39,1
1022,512,0,490,39,1
1022,512,0,490,39,1
1022,512,0,490,39,1
1022,512,0,490,39,1
1022,511,0,500,39,1
1022,511,0,500,39,1
1022,511,0,500,39,1
1022,511,0,500,39,1
1022,511,0,500,39,1
1022,511,0,500,39,1
1022,511,0,500,39,1
1022,511,0,500,39,1
1022,513,0,496,39,1
1022,513,0,496,39,1
1022,513,0,496,39,1
1022,513,0,496,39,1
1022,513,0,494,39,1
1022,513,0,494,39,1
1022,513,0,494,39,1
1022,513,0,494,39,1
1022,513,0,494,39,1
1022,512,0,489,39,1
1022,512,0,489,39,1
1022,512,0,489,39,1
1022,512,0,489,39,1
1022,512,0,489,39,1
1022,512,0,489,39,1
1022,510,0,503,39,1
1022,510,0,503,39,1
1022,510,0,503,39,1
1022,510,0,503,39,1
1022,510,0,503,39,1
1022,510,0,503,39,1
1022,512,0,487,39,1
1022,512,0,487,39,1
1022,512,0,487,39,1
1022,512,0,487,39,1
1022,512,0,487,39,1
1022,512,0,487,39,1
1022,512,0,487,39,1
1022,515,0,500,39,1
1022,515,0,500,39,1
1022,515,0,500,39,1
1022,515,0,500,39,1
1022,515,0,500,39,1
1022,515,0,500,39,1
1022,515,0,500,39,1
1022,515,0,500,39,1
1022,512,0,483,39,1
1022,512,0,483,39,1
1022,512,0,483,39,1
1022,512,0,483,39,1
1022,512,0,483,39,1
1022,510,0,492,39,1
1022,510,0,492,39,1
1022,510,0,492,39,1
1022,510,0,492,39,1
1022,510,0,492,39,1
1022,514,0,492,39,1
1022,514,0,492,39,1
1022,514,0,492,39,1
1022,514,0,492,39,1
1022,514,0,492,39,1
1022,514,0,490,39,1
1022,514,0,490,39,1
1022,514,0,490,39,1
1022,514,0,490,39,1
1022,514,0,490,39,1
1022,514,0,490,39,1
1022,513,0,488,39,1
1022,513,0,488,39,1
1022,513,0,488,39,1
1022,513,0,488,39,1
1022,513,0,488,39,1
1022,513,0,488,39,1
1022,513,0,488,39,1
1022,515,0,487,39,1
1022,515,0,487,39,1
1022,515,0,487,39,1
1022,515,0,487,39,1
1022,515,0,487,39,1
1022,515,0,487,39,1
1022,515,0,487,39,1
1022,515,0,487,39,1
1022,515,0,487,39,1
1022,515,0,487,39,1
1022,515,0,487,39,1
1022,511,0,490,39,1
1022,511,0,490,39,1
1022,511,0,490,39,1
1022,511,0,490,39,1
1022,511,0,490,39,1
1022,511,0,490,39,1
1022,511,0,490,39,1
1022,512,0,496,39,1
1022,512,0,496,39,1
1022,512,0,496,39,1
1022,512,0,496,39,1
1022,512,0,496,39,1
1022,511,0,493,39,1
1022,511,0,493,39,1
1022,511,0,493,39,1
1022,511,0,493,39,1
1022,511,0,493,39,1
1022,511,0,493,39,1
1022,510,0,490,39,1
1022,510,0,490,39,1
1022,510,0,490,39,1
1022,510,0,490,39,1
1022,510,0,490,39,1
1022,510,0,490,39,1
1022,510,0,490,39,1
1022,511,0,480,39,1
1022,511,0,480,39,1
1022,511,0,480,39,1
1022,511,0,480,39,1
1022,511,0,480,39,1
1022,511,0,480,39,1
1022,511,0,480,39,1
1022,511,0,480,39,1
1022,511,0,480,39,1
1022,513,0,491,39,1
1022,513,0,491,39,1
1022,513,0,491,39,1
1022,513,0,493,39,1
1022,513,0,493,39,1
1022,513,0,493,39,1
1022,513,0,493,39,1
1022,513,0,493,39,1
1022,513,0,493,39,1
1022,513,0,493,39,1
1022,513,0,493,39,1
1022,511,0,492,39,1
1022,511,0,492,39,1
1022,511,0,492,39,1
1022,511,0,490,39,1
1022,511,0,490,39,1
1022,511,0,490,39,1
1022,511,0,490,39,1
1022,511,0,490,39,1
1022,511,0,490,39,1
1022,509,0,481,39,1
1022,509,0,481,39,1
1022,509,0,481,39,1
1022,509,0,481,39,1
1022,509,0,481,39,1
1022,509,0,481,39,1
1022,509,0,481,39,1
1022,512,0,494,39,1
1022,512,0,494,39,1
1022,512,0,494,39,1
1022,512,0,494,39,1
1022,512,0,494,39,1
1022,513,0,488,39,1
1022,513,0,488,39,1
1022,513,0,488,39,1
1022,513,0,488,39,1
1022,513,0,488,39,1
1022,513,0,488,39,1
1022,510,0,492,39,1
1022,510,0,492,39,1
1022,510,0,492,39,1
1022,510,0,492,39,1
1022,510,0,492,39,1
1022,510,0,492,39,1
1022,510,0,492,39,1
1022,516,0,494,39,1
1022,516,0,494,39,1
1022,516,0,494,39,1
1022,516,0,494,39,1
1022,516,0,494,39,1
1022,513,0,493,39,1
1022,513,0,493,39,1
1022,513,0,493,39,1
1022,513,0,493,39,1
1022,513,0,493,39,1
1022,513,0,493,39,1
1022,512,0,492,39,1
1022,512,0,492,39,1
1022,512,0,492,39,1
1022,512,0,492,39,1
1022,512,0,492,39,1
1022,512,0,492,39,1
1022,515,0,493,39,1
1022,515,0,493,39,1
1022,515,0,493,39,1
1022,515,0,493,39,1
1022,515,0,493,39,1
1022,515,0,493,39,1
1022,513,0,497,39,1
1022,513,0,497,39,1
1022,513,0,497,39,1
1022,513,0,497,39,1
1022,513,0,497,39,1
1022,513,0,497,39,1
1022,513,0,484,39,1
1022,513,0,484,39,1
1022,513,0,484,39,1
1022,513,0,484,39,1
1022,513,0,484,39,1
1022,513,0,484,39,1
1022,513,0,484,39,1
1022,513,0,487,39,1
1022,513,0,487,39,1
1022,513,0,487,39,1
1022,513,0,487,39,1
1022,513,0,487,39,1
1022,513,0,487,39,1
1022,511,0,492,39,1
1022,511,0,492,39,1
1022,511,0,492,39,1
1022,511,0,492,39,1
1022,511,0,492,39,1
1022,511,0,492,39,1
1022,512,0,488,39,1
1022,512,0,488,39,1
1022,512,0,488,39,1
1022,512,0,488,39,1
1022,512,0,488,39,1
1022,514,0,499,39,1
1022,514,0,499,39,1
1022,514,0,499,39,1
1022,514,0,499,39,1
1022,514,0,499,39,1
1022,514,0,499,39,1
1022,514,0,499,39,1
1022,512,0,499,39,1
1022,512,0,499,39,1
1022,512,0,499,39,1
1022,512,0,499,39,1
1022,512,0,499,39,1
1022,512,0,499,39,1
1022,512,0,493,39,1
1022,512,0,493,39,1
1022,512,0,493,39,1
1022,512,0,493,39,1
1022,512,0,493,39,1
1022,512,0,493,39,1
1022,512,0,493,39,1
1022,511,0,491,39,1
1022,511,0,491,39,1
1022,511,0,491,39,1
1022,511,0,491,39,1
1022,511,0,491,39,1
1022,511,0,491,39,1
1022,511,0,491,39,1
1022,512,0,500,39,1
1022,512,0,500,39,1
1022,512,0,500,39,1
1022,511,0,503,39,1
1022,511,0,503,39,1
1022,511,0,503,39,1
1022,511,0,503,39,1
1022,511,0,503,39,1
1022,511,0,503,39,1
1022,511,0,503,39,1
1022,513,0,480,39,1
1022,513,0,480,39,1
1022,513,0,480,39,1
1022,513,0,480,39,1
1022,513,0,480,39,1
1022,513,0,480,39,1
1022,513,0,480,39,1
1022,513,0,480,39,1
1022,512,0,486,39,1
1022,512,0,486,39,1
1022,512,0,486,39,1
1022,512,0,486,39,1
1022,508,0,481,39,1
1022,508,0,481,39,1
1022,508,0,481,39,1
1022,508,0,481,39,1
1022,508,0,481,39,1
1022,508,0,481,39,1
1022,513,0,494,39,1
1022,513,0,494,39,1
1022,513,0,494,39,1
1022,513,0,494,39,1
1022,513,0,494,39,1
1022,513,0,494,39,1
1022,511,0,492,39,1
1022,511,0,492,39,1
1022,511,0,492,39,1
1022,511,0,492,39,1
1022,511,0,492,39,1
1022,513,0,485,39,1
1022,513,0,485,39,1
1022,513,0,485,39,1
1022,513,0,485,39,1
1022,513,0,485,39,1
1022,513,0,485,39,1
1022,513,0,485,39,1
1022,508,0,494,39,1
1022,508,0,494,39,1
1022,508,0,494,39,1
1022,508,0,494,39,1
1022,508,0,494,39,1
1022,510,0,486,39,1
1022,510,0,486,39,1
1022,510,0,486,39,1
1022,510,0,486,39,1
1022,510,0,486,39,1
1022,510,0,486,39,1
1022,515,0,484,39,1
1022,515,0,484,39,1
1022,515,0,484,39,1
1022,515,0,484,39,1
1022,515,0,484,39,1
1022,515,0,484,39,1
1022,515,0,484,39,1
1022,507,0,495,39,1
1022,507,0,495,39,1
1022,507,0,495,39,1
1022,507,0,495,39,1
1022,507,0,495,39,1
1022,511,0,491,39,1
1022,511,0,491,39,1
1022,511,0,491,39,1
1022,511,0,491,39,1
1022,511,0,491,39,1
1022,511,0,491,39,1
1022,511,0,491,39,1
1022,513,0,489,39,1
1022,513,0,489,39,1
1022,513,0,489,39,1
1022,513,0,489,39,1
1022,513,0,489,39,1
1022,513,0,489,39,1
1022,509,0,484,39,1
1022,509,0,484,39,1
1022,509,0,484,39,1
1022,509,0,484,39,1
1022,509,0,484,39,1
1022,515,0,502,39,1
1022,515,0,502,39,1
1022,515,0,502,39,1
1022,515,0,502,39,1
1022,515,0,502,39,1
1022,515,0,502,39,1
1022,514,0,496,39,1
1022,514,0,496,39,1
1022,514,0,496,39,1
1022,514,0,496,39,1
1022,514,0,496,39,1
1022,514,0,496,39,1
1022,514,0,496,39,1
1022,515,0,498,39,1
1022,515,0,498,39,1
1022,515,0,498,39,1
1022,515,0,498,39,1
1022,515,0,498,39,1
1022,515,0,498,39,1
1022,515,0,498,39,1
1022,515,0,498,39,1
1022,510,0,491,39,1
1022,510,0,491,39,1
1022,510,0,491,39,1
1022,510,0,491,39,1
1022,515,0,489,39,1
1022,515,0,489,39,1
1022,515,0,489,39,1
1022,515,0,489,39,1
1022,515,0,489,39,1
1022,510,0,488,39,1
1022,510,0,488,39,1
1022,510,0,488,39,1
1022,510,0,488,39,1
1022,510,0,488,39,1
1022,510,0,488,39,1
1022,512,0,487,39,1
1022,512,0,487,39,1
1022,512,0,487,39,1
1022,512,0,487,39,1
1022,512,0,487,39,1
1022,512,0,487,39,1
1022,512,0,487,39,1
1022,512,0,492,39,1
1022,512,0,492,39,1
1022,512,0,492,39,1
1022,512,0,492,39,1
1022,512,0,492,39,1
1022,512,0,492,39,1
1022,512,0,492,39,1
1022,512,0,487,39,1
1022,512,0,487,39,1
1022,512,0,487,39,1
1022,512,0,487,39,1
1022,512,0,487,39,1
1022,514,0,497,39,1
1022,514,0,497,39,1
1022,514,0,497,39,1
1022,514,0,497,39,1
1022,514,0,497,39,1
1022,515,0,480,39,1
1022,515,0,480,39,1
1022,515,0,480,39,1
1022,515,0,480,39,1
1022,515,0,480,39,1
1022,515,0,480,39,1
1022,513,0,485,39,1
1022,513,0,485,39,1
1022,513,0,485,39,1
1022,513,0,485,39,1
1022,513,0,485,39,1
1022,513,0,485,39,1
1022,513,0,485,39,1
1022,512,0,502,39,1
1022,512,0,502,39,1
1022,512,0,502,39,1
1022,512,0,502,39,1
1022,512,0,502,39,1
1022,512,0,502,39,1
1022,512,0,502,39,1
1022,512,0,502,39,1
1022,512,0,502,39,1
1022,512,0,502,39,1
1022,512,0,502,39,1
1022,512,0,502,39,1
1022,512,0,491,39,1
1022,512,0,491,39,1
1022,512,0,491,39,1
1022,512,0,491,39,1
1022,512,0,491,39,1
1022,512,0,491,39,1
1022,512,0,491,39,1
1022,512,0,491,39,1
1022,512,0,491,39,1
1022,512,0,491,39,1
1022,512,0,490,39,1
1022,511,0,489,39,1
1022,511,0,489,39,1
1022,511,0,489,39,1
1022,511,0,489,39,1
1022,511,0,489,39,1
1022,511,0,489,39,1
1022,511,0,489,39,1
1022,511,0,489,39,1
1022,511,0,488,39,1
1022,511,0,488,39,1
1022,511,0,488,39,1
1022,511,0,488,39,1
1022,511,0,488,39,1
1022,513,0,497,39,1
1022,513,0,497,39,1
1022,513,0,497,39,1
1022,513,0,497,39,1
1022,513,0,497,39,1
1022,513,0,497,39,1
1022,514,0,503,39,1
1022,514,0,503,39,1
1022,514,0,503,39,1
1022,514,0,503,39,1
1022,514,0,503,39,1
1022,510,0,492,39,1
1022,510,0,492,39,1
1022,510,0,492,39,1
1022,510,0,492,39,1
1022,510,0,492,39,1
1022,510,0,492,39,1
1022,510,0,492,39,1
1022,510,0,494,39,1
1022,510,0,494,39,1
1022,510,0,494,39,1
1022,510,0,494,39,1
1022,510,0,494,39,1
1022,510,0,494,39,1
1022,511,0,482,39,1
1022,511,0,482,39,1
1022,511,0,482,39,1
1022,511,0,482,39,1
1022,511,0,482,39,1
1022,511,0,482,39,1
1022,511,0,482,39,1
1022,511,0,482,39,1
1022,511,0,482,39,1
1022,512,0,493,39,1
1022,512,0,493,39,1
1022,512,0,493,39,1
1022,513,0,493,39,1
1022,513,0,493,39,1
1022,513,0,493,39,1
1022,513,0,493,39,1
1022,513,0,493,39,1
1022,513,0,493,39,1
1022,515,0,492,39,1
1022,515,0,492,39,1
1022,515,0,492,39,1
1022,515,0,492,39,1
1022,515,0,492,39,1
1022,515,0,492,39,1
1022,511,0,498,39,1
1022,511,0,498,39,1
1022,511,0,498,39,1
1022,511,0,498,39,1
1022,511,0,498,39,1
1022,511,0,498,39,1
1022,511,0,498,39,1
1022,511,0,498,39,1
1022,511,0,498,39,1
1022,510,0,504,39,1
1022,510,0,504,39,1
1022,510,0,504,39,1
1022,510,0,504,39,1
1022,515,0,484,39,1
1022,515,0,484,39,1
1022,515,0,484,39,1
1022,515,0,484,39,1
1022,515,0,497,39,1
1022,515,0,497,39,1
1022,515,0,497,39,1
1022,515,0,497,39,1
1022,515,0,497,39,1
1022,515,0,497,39,1
1022,515,0,497,39,1
1022,515,0,497,39,1
1022,512,0,494,39,1
1022,512,0,494,39,1
1022,512,0,494,39,1
1022,512,0,494,39,1
1022,512,0,494,39,1
1022,512,0,494,39,1
1022,511,0,493,39,1
1022,511,0,493,39,1
1022,511,0,493,39,1
1022,511,0,493,39,1
1022,512,0,494,39,1
1022,512,0,494,39,1
1022,512,0,494,39,1
1022,512,0,494,39,1
1022,512,0,494,39,1
1022,512,0,494,39,1
1022,512,0,494,39,1
1022,512,0,494,39,1
1022,512,0,494,39,1
1022,512,0,497,39,1
1022,512,0,497,39,1
1022,512,0,497,39,1
1022,510,0,496,39,1
1022,510,0,496,39,1
1022,510,0,496,39,1
1022,510,0,496,39,1
1022,510,0,496,39,1
1022,510,0,496,39,1
1022,510,0,496,39,1
1022,510,0,496,39,1
1022,510,0,496,39,1
1022,509,0,488,39,1
1022,509,0,488,39,1
1022,509,0,488,39,1
1022,516,0,492,39,1
1022,516,0,492,39,1
1022,516,0,492,39,1
1022,516,0,492,39,1
1022,516,0,492,39,1
1022,516,0,492,39,1
1022,516,0,492,39,1
1022,516,0,492,39,1
1022,516,0,492,39,1
1022,509,0,506,39,1
1022,509,0,506,39,1
1022,509,0,506,39,1
1022,512,0,496,39,1
1022,512,0,496,39,1
1022,512,0,496,39,1
1022,512,0,496,39,1
1022,512,0,496,39,1
1022,512,0,496,39,1
1022,512,0,496,39,1
1022,512,0,496,39,1
1022,513,0,501,39,1
1022,513,0,501,39,1
1022,513,0,501,39,1
1022,513,0,501,39,1
1022,513,0,501,39,1
1022,513,0,489,39,1
1022,513,0,489,39,1
1022,513,0,489,39,1
1022,513,0,489,39,1
1022,513,0,489,39,1
1022,513,0,489,39,1
1022,513,0,489,39,1
1022,513,0,489,39,1
1022,517,0,495,39,1
1022,517,0,495,39,1
1022,517,0,495,39,1
1022,517,0,495,39,1
1022,517,0,495,39,1
1022,517,0,495,39,1
1022,516,0,482,39,1
1022,516,0,482,39,1
1022,516,0,482,39,1
1022,516,0,482,39,1
1022,514,0,504,39,1
1022,514,0,504,39,1
1022,514,0,504,39,1
1022,514,0,504,39,1
1022,514,0,504,39,1
1022,514,0,504,39,1
1022,514,0,504,39,1
1022,514,0,504,39,1
1022,515,0,487,39,1
1022,515,0,487,39,1
1022,515,0,487,39,1
1022,510,0,489,39,1
1022,510,0,489,39,1
1022,510,0,489,39,1
1022,510,0,489,39,1
1022,510,0,489,39,1
1022,510,0,489,39,1
1022,510,0,489,39,1
1022,510,0,489,39,1
1022,510,0,489,39,1
1022,509,0,504,39,1
1022,509,0,504,39,1
1022,509,0,504,39,1
1022,511,0,497,39,1
1022,511,0,497,39,1
1022,511,0,497,39,1
1022,511,0,497,39,1
1022,511,0,497,39,1
1022,511,0,497,39,1
1022,511,0,497,39,1
1022,511,0,497,39,1
1022,511,0,497,39,1
1022,511,0,497,39,1
1022,511,0,497,39,1
1022,510,0,487,39,1
1022,510,0,487,39,1
1022,510,0,487,39,1
1022,511,0,485,39,1
1022,511,0,485,39,1
1022,511,0,485,39,1
1022,511,0,485,39,1
1022,511,0,485,39,1
1022,511,0,485,39,1
1022,511,0,485,39,1
1022,511,0,485,39,1
1022,511,0,485,39,1
1022,510,0,499,39,1
1022,512,0,493,39,1
1022,512,0,493,39,1
1022,512,0,493,39,1
1022,512,0,493,39,1
1022,512,0,493,39,1
1022,512,0,493,39,1
1022,512,0,503,39,1
1022,512,0,503,39,1
1022,512,0,503,39,1
1022,512,0,503,39,1
1022,512,0,503,39,1
1022,512,0,503,39,1
1022,510,0,504,39,1
1022,510,0,504,39,1
1022,510,0,504,39,1
1022,510,0,504,39,1
1022,510,0,504,39,1
1022,510,0,504,39,1
1022,510,0,504,39,1
1022,510,0,504,39,1
1022,510,0,504,39,1
1022,510,0,504,39,1
1022,510,0,504,39,1
1022,510,0,504,39,1
1022,511,0,499,39,1
1022,511,0,499,39,1
1022,511,0,499,39,1
1022,511,0,499,39,1
1022,511,0,499,39,1
1022,511,0,499,39,1
1022,511,0,499,39,1
1022,512,0,500,39,1
1022,512,0,500,39,1
1022,512,0,500,39,1
1022,512,0,500,39,1
1022,512,0,500,39,1
1022,515,0,496,39,1
1022,515,0,496,39,1
1022,515,0,496,39,1
1022,515,0,496,39,1
1022,515,0,496,39,1
1022,515,0,496,39,1
1022,510,0,496,39,1
1022,510,0,496,39,1
1022,510,0,496,39,1
1022,510,0,496,39,1
1022,510,0,496,39,1
1022,510,0,496,39,1
1022,510,0,496,39,1
1022,510,0,494,39,1
1022,510,0,494,39,1
1022,510,0,494,39,1
1022,510,0,494,39,1
1022,510,0,494,39,1
1022,512,0,499,39,1
1022,512,0,499,39,1
1022,512,0,499,39,1
1022,512,0,499,39,1
1022,512,0,499,39,1
1022,512,0,499,39,1
1022,511,0,495,39,1
1022,511,0,495,39,1
1022,511,0,495,39,1
1022,511,0,495,39,1
1022,511,0,495,39,1
1022,511,0,495,39,1
1022,512,0,497,39,1
1022,512,0,497,39,1
1022,512,0,497,39,1
1022,512,0,497,39,1
1022,512,0,497,39,1
1022,512,0,497,39,1
1022,513,0,503,39,1
1022,513,0,503,39,1
1022,513,0,503,39,1
1022,513,0,503,39,1
1022,513,0,503,39,1
1022,513,0,503,39,1
1022,513,0,501,39,1
1022,513,0,501,39,1
1022,513,0,501,39,1
1022,513,0,501,39,1
1022,513,0,501,39,1
1022,513,0,501,39,1
1022,513,0,501,39,1
1022,511,0,505,39,1
1022,511,0,505,39,1
1022,511,0,505,39,1
1022,511,0,505,39,1
1022,511,0,505,39,1
1022,515,0,500,39,1
1022,515,0,500,39,1
1022,515,0,500,39,1
1022,515,0,500,39,1
1022,515,0,500,39,1
1022,515,0,500,39,1
1022,515,0,500,39,1
1022,515,0,500,39,1
1022,511,0,499,39,1
1022,511,0,499,39,1
1022,511,0,499,39,1
1022,511,0,499,39,1
1022,511,0,499,39,1
1022,511,0,507,39,1
1022,511,0,507,39,1
1022,511,0,507,39,1
1022,511,0,507,39,1
1022,511,0,507,39,1
1022,511,0,507,39,1
1022,511,0,505,39,1
1022,511,0,505,39,1
1022,511,0,505,39,1
1022,511,0,505,39,1
1022,511,0,505,39,1
1022,508,0,502,39,1
1022,508,0,502,39,1
1022,508,0,502,39,1
1022,508,0,502,39,1
1022,508,0,502,39,1
1022,508,0,502,39,1
1022,508,0,502,39,1
1022,514,0,496,39,1
1022,514,0,496,39,1
1022,514,0,496,39,1
1022,514,0,496,39,1
1022,514,0,496,39,1
1022,514,0,496,39,1
1022,514,0,496,39,1
1022,514,0,496,39,1
1022,512,0,499,39,1
1022,512,0,499,39,1
1022,512,0,499,39,1
1022,512,0,499,39,1
1022,510,0,501,39,1
1022,510,0,501,39,1
1022,510,0,501,39,1
1022,510,0,501,39,1
1022,510,0,501,39,1
1022,510,0,501,39,1
1022,510,0,505,39,1
1022,510,0,505,39,1
1022,510,0,505,39,1
1022,510,0,505,39,1
1022,510,0,505,39,1
1022,511,0,511,39,1
1022,511,0,511,39,1
1022,511,0,511,39,1
1022,511,0,511,39,1
1022,511,0,511,39,1
1022,511,0,511,39,1
1022,511,0,511,39,1
1022,512,0,496,39,1
1022,512,0,496,39,1
1022,512,0,496,39,1
1022,512,0,496,39,1
1022,512,0,496,39,1
1022,508,0,505,39,1
1022,508,0,505,39,1
1022,508,0,505,39,1
1022,508,0,505,39,1
1022,508,0,505,39,1
1022,508,0,505,39,1
1022,512,0,496,39,1
1022,512,0,496,39,1
1022,512,0,496,39,1
1022,512,0,496,39,1
1022,512,0,496,39,1
1022,512,0,496,39,1
1022,511,0,500,39,1
1022,511,0,500,39,1
1022,511,0,500,39,1
1022,511,0,500,39,1
1022,511,0,500,39,1
1022,511,0,500,39,1
1022,511,0,500,39,1
1022,510,0,500,39,1
1022,510,0,500,39,1
1022,510,0,500,39,1
1022,510,0,500,39,1
1022,510,0,500,39,1
1022,511,0,492,39,1
1022,511,0,492,39,1
1022,511,0,492,39,1
1022,511,0,492,39,1
1022,511,0,492,39,1
1022,511,0,492,39,1
1022,511,0,492,39,1
1022,511,0,509,39,1
1022,511,0,509,39,1
1022,511,0,509,39,1
1022,511,0,509,39,1
1022,511,0,509,39,1
1022,511,0,509,39,1
1022,512,0,500,39,1
1022,512,0,500,39,1
1022,512,0,500,39,1
1022,512,0,500,39,1
1022,512,0,500,39,1
1022,515,0,500,39,1
1022,515,0,500,39,1
1022,515,0,500,39,1
1022,515,0,500,39,1
1022,515,0,500,39,1
1022,515,0,500,39,1
1022,514,0,493,39,1
1022,514,0,493,39,1
1022,514,0,493,39,1
1022,514,0,493,39,1
1022,514,0,493,39,1
1022,514,0,493,39,1
1022,514,0,493,39,1
1022,510,0,505,39,1
1022,510,0,505,39,1
1022,510,0,505,39,1
1022,510,0,505,39,1
1022,510,0,505,39,1
1022,510,0,505,39,1
1022,512,0,489,39,1
1022,512,0,489,39,1
1022,512,0,489,39,1
1022,512,0,489,39,1
1022,512,0,489,39,1
1022,513,0,502,39,1
1022,513,0,502,39,1
1022,513,0,502,39,1
1022,513,0,502,39,1
1022,513,0,502,39,1
1022,513,0,502,39,1
1022,513,0,502,39,1
1022,515,0,499,39,1
1022,515,0,499,39,1
1022,515,0,499,39,1
1022,515,0,499,39,